Name,Kaushik Vada
Date of Birth,"Mar 17, 2005"
Recorded Date,2024-06-22 01:56:16 -0800
Classification,Sinus Rhythm
Symptoms,
Software Version,1.90
Device,"Watch6,15"
Sample Rate,512 hertz


Lead,Lead I
Unit,µV

25.737
23.713
21.653
19.562
17.441
15.296
13.13
10.948
8.755
6.558
4.361
2.17
-0.007
-2.164
-4.294
-6.39
-8.444
-10.449
-12.396
-14.278
-16.087
-17.815
-19.455
-20.999
-22.441
-23.774
-24.992
-26.09
-27.062
-27.903
-28.611
-29.18
-29.608
-29.893
-30.033
-30.028
-29.876
-29.578
-29.135
-28.548
-27.82
-26.953
-25.949
-24.813
-23.548
-22.16
-20.653
-19.034
-17.308
-15.482
-13.564
-11.559
-9.477
-7.324
-5.107
-2.835
-0.516
1.844
4.235
6.651
9.084
11.526
13.971
16.41
18.839
21.251
23.64
26
28.326
30.614
32.858
35.055
37.199
39.287
41.315
43.279
45.175
47.001
48.752
50.427
52.021
53.533
54.958
56.294
57.538
58.686
59.735
60.681
61.521
62.252
62.869
63.368
63.746
63.999
64.123
64.112
63.963
63.671
63.232
62.641
61.894
60.987
59.915
58.676
57.266
55.681
53.921
51.981
49.862
47.561
45.08
42.417
39.575
36.554
33.358
29.989
26.453
22.753
18.896
14.888
10.737
6.451
2.039
-2.488
-7.122
-11.85
-16.66
-21.541
-26.48
-31.463
-36.479
-41.512
-46.549
-51.575
-56.577
-61.539
-66.447
-71.288
-76.046
-80.708
-85.261
-89.693
-93.991
-98.144
-102.141
-105.971
-109.625
-113.094
-116.369
-119.442
-122.306
-124.955
-127.384
-129.587
-131.562
-133.305
-134.813
-136.084
-137.116
-137.909
-138.46
-138.767
-138.829
-138.644
-138.214
-137.538
-136.619
-135.459
-134.059
-132.426
-130.564
-128.478
-126.168
-123.635
-120.88
-117.901
-114.701
-111.276
-107.626
-103.747
-99.643
-95.32
-90.783
-86.034
-81.075
-75.899
-70.509
-64.916
-59.13
-53.16
-47.02
-40.727
-34.31
-27.813
-21.278
-14.731
-8.189
-1.658
4.852
11.33
17.763
24.143
30.48
36.788
43.072
49.327
55.554
61.77
68.017
74.357
80.835
87.46
94.224
101.103
108.082
115.131
122.203
129.227
136.104
142.752
149.105
155.103
160.669
165.707
170.099
173.715
176.467
178.306
179.201
179.128
178.062
176.014
173.034
169.204
164.631
159.389
153.545
147.191
140.448
133.459
126.368
119.312
112.383
105.66
99.221
93.143
87.5
82.323
77.62
73.374
69.575
66.244
63.387
60.971
58.922
57.158
55.617
54.256
53.057
51.992
51.023
50.116
49.246
48.41
47.612
46.847
46.089
45.293
44.435
43.526
42.603
41.698
40.82
39.961
39.107
38.256
37.407
36.551
35.663
34.709
33.666
32.521
31.279
29.949
28.524
26.983
25.294
23.433
21.386
19.144
16.701
14.043
11.163
8.064
4.762
1.273
-2.387
-6.212
-10.194
-14.323
-18.582
-22.951
-27.407
-31.926
-36.485
-41.058
-45.617
-50.13
-54.57
-58.912
-63.133
-67.211
-71.123
-74.847
-78.36
-81.643
-84.677
-87.446
-89.932
-92.119
-93.995
-95.551
-96.778
-97.673
-98.231
-98.451
-98.334
-97.884
-97.107
-96.011
-94.604
-92.897
-90.906
-88.645
-86.133
-83.389
-80.436
-77.296
-73.995
-70.56
-67.021
-63.407
-59.747
-56.07
-52.408
-48.788
-45.238
-41.785
-38.453
-35.265
-32.245
-29.417
-26.801
-24.417
-22.284
-20.416
-18.826
-17.528
-16.526
-15.823
-15.417
-15.308
-15.498
-15.993
-16.792
-17.891
-19.281
-20.947
-22.871
-25.024
-27.367
-29.846
-32.409
-35.003
-37.584
-40.117
-42.559
-44.863
-46.979
-48.843
-50.414
-51.661
-52.551
-53.058
-53.182
-52.95
-52.423
-51.704
-50.874
-49.985
-49.104
-48.293
-47.632
-47.211
-47.116
-47.398
-48.12
-49.383
-51.189
-53.46
-56.001
-58.413
-60.297
-61.34
-61.135
-59.236
-55.544
-50.163
-43.456
-36.307
-29.37
-22.997
-17.879
-14.591
-12.879
-12.039
-10.836
-7.212
0.58
13.994
35.249
66.576
107.666
156.042
209.074
263.079
318.363
380.065
448.263
519.666
584.683
623.971
624.351
579.676
493.022
383.025
268.998
168.992
95.317
46.43
16.142
-6.064
-29.96
-57.378
-86.473
-112.512
-131.541
-143.989
-152.853
-161.653
-172.177
-184.342
-197.118
-209.169
-219.843
-228.616
-234.504
-236.945
-235.764
-230.93
-222.888
-212.192
-199.238
-184.597
-168.958
-152.808
-136.529
-120.426
-104.596
-89.13
-74.14
-59.651
-45.701
-32.366
-19.732
-7.942
2.857
12.578
21.184
28.678
35.111
40.549
45.072
48.786
51.77
54.072
55.734
56.784
57.26
57.22
56.746
55.959
54.992
53.986
53.048
52.246
51.617
51.174
50.912
50.813
50.859
51.039
51.345
51.778
52.336
53.018
53.799
54.631
55.451
56.178
56.753
57.147
57.343
57.344
57.165
56.827
56.361
55.807
55.199
54.563
53.919
53.282
52.677
52.135
51.694
51.399
51.284
51.37
51.674
52.204
52.961
53.944
55.14
56.529
58.093
59.817
61.689
63.696
65.825
68.058
70.377
72.76
75.188
77.643
80.104
82.552
84.968
87.335
89.639
91.866
94.002
96.033
97.946
99.728
101.366
102.848
104.166
105.31
106.271
107.044
107.626
108.013
108.206
108.205
108.012
107.63
107.064
106.32
105.403
104.323
103.087
101.705
100.187
98.544
96.788
94.932
92.99
90.974
88.9
86.781
84.633
82.47
80.306
78.156
76.034
73.953
71.928
69.972
68.096
66.314
64.636
63.072
61.632
60.323
59.154
58.131
57.258
56.541
55.984
55.589
55.359
55.296
55.401
55.672
56.11
56.712
57.476
58.397
59.471
60.694
62.058
63.558
65.187
66.936
68.798
70.764
72.826
74.974
77.199
79.492
81.844
84.244
86.685
89.157
91.652
94.162
96.679
99.197
101.707
104.203
106.678
109.127
111.542
113.92
116.254
118.54
120.773
122.95
125.068
127.124
129.115
131.041
132.899
134.69
136.412
138.066
139.652
141.172
142.625
144.014
145.34
146.605
147.81
148.957
150.047
151.082
152.064
152.993
153.871
154.699
155.478
156.208
156.892
157.531
158.124
158.674
159.182
159.649
160.076
160.465
160.816
161.13
161.409
161.654
161.865
162.044
162.191
162.309
162.397
162.456
162.489
162.495
162.478
162.437
162.376
162.295
162.198
162.087
161.964
161.833
161.695
161.555
161.415
161.279
161.15
161.031
160.924
160.832
160.758
160.704
160.673
160.665
160.683
160.728
160.801
160.902
161.032
161.19
161.378
161.594
161.837
162.107
162.401
162.717
163.054
163.408
163.775
164.154
164.539
164.925
165.31
165.686
166.05
166.396
166.718
167.009
167.265
167.478
167.644
167.757
167.81
167.798
167.717
167.56
167.325
167.005
166.598
166.099
165.506
164.816
164.025
163.133
162.138
161.038
159.834
158.525
157.111
155.593
153.974
152.253
150.434
148.519
146.51
144.413
142.23
139.966
137.625
135.214
132.736
130.199
127.607
124.968
122.286
119.569
116.823
114.054
111.268
108.471
105.67
102.869
100.075
97.292
94.527
91.783
89.065
86.377
83.722
81.105
78.528
75.993
73.505
71.064
68.672
66.332
64.044
61.809
59.627
57.498
55.421
53.396
51.419
49.49
47.606
45.765
43.963
42.196
40.463
38.758
37.078
35.42
33.778
32.15
30.531
28.918
27.308
25.698
24.085
22.467
20.841
19.205
17.558
15.899
14.226
12.538
10.836
9.119
7.387
5.642
3.886
2.12
0.347
-1.43
-3.206
-4.978
-6.74
-8.487
-10.214
-11.913
-13.578
-15.203
-16.778
-18.297
-19.752
-21.134
-22.437
-23.652
-24.773
-25.794
-26.707
-27.507
-28.188
-28.745
-29.175
-29.473
-29.635
-29.658
-29.541
-29.283
-28.884
-28.344
-27.666
-26.851
-25.904
-24.832
-23.638
-22.332
-20.92
-19.413
-17.821
-16.157
-14.433
-12.663
-10.862
-9.047
-7.236
-5.447
-3.698
-2.007
-0.392
1.128
2.536
3.815
4.952
5.932
6.74
7.361
7.783
7.99
7.973
7.721
7.226
6.478
5.476
4.221
2.715
0.961
-1.038
-3.289
-5.788
-8.529
-11.506
-14.705
-18.109
-21.697
-25.433
-29.273
-33.172
-37.087
-40.983
-44.832
-48.6
-52.25
-55.739
-59.015
-62.042
-64.797
-67.247
-69.363
-71.146
-72.616
-73.827
-74.873
-75.816
-76.697
-77.57
-78.491
-79.536
-80.793
-82.334
-84.205
-86.468
-89.235
-92.551
-96.359
-100.459
-104.449
-107.909
-110.513
-111.891
-111.582
-109.381
-105.39
-100.025
-94.269
-89.057
-84.973
-82.758
-83.144
-86.18
-91.231
-97.012
-101.293
-101.684
-96.057
-81.828
-56.176
-18.816
27.575
80.176
135.577
194.911
264.923
346.365
433.01
508.733
548.335
537.098
474.698
375.033
263.705
158.551
66.958
-11.497
-83.761
-151.35
-211.31
-260.674
-296
-317.447
-328.34
-331.866
-331.423
-330.491
-331.033
-333.987
-339.783
-347.794
-356.817
-365.713
-373.04
-377.103
-377.001
-372.459
-363.522
-350.828
-335.133
-317.118
-297.678
-277.803
-258.181
-239.276
-221.399
-204.66
-189.224
-175.341
-163.178
-152.828
-144.347
-137.744
-133.009
-130.126
-129.02
-129.546
-131.523
-134.73
-138.944
-143.982
-149.673
-155.836
-162.269
-168.725
-174.96
-180.799
-186.128
-190.869
-194.981
-198.428
-201.2
-203.335
-204.901
-205.978
-206.651
-206.978
-207.006
-206.808
-206.472
-206.112
-205.849
-205.759
-205.884
-206.251
-206.869
-207.743
-208.868
-210.208
-211.709
-213.324
-215.008
-216.726
-218.45
-220.138
-221.739
-223.199
-224.461
-225.483
-226.239
-226.706
-226.867
-226.712
-226.235
-225.442
-224.349
-222.965
-221.298
-219.356
-217.144
-214.672
-211.957
-209.013
-205.856
-202.503
-198.969
-195.271
-191.427
-187.454
-183.365
-179.177
-174.903
-170.557
-166.157
-161.72
-157.262
-152.802
-148.354
-143.936
-139.564
-135.253
-131.017
-126.869
-122.82
-118.883
-115.067
-111.384
-107.842
-104.449
-101.214
-98.143
-95.242
-92.517
-89.972
-87.61
-85.436
-83.45
-81.653
-80.048
-78.633
-77.407
-76.371
-75.521
-74.855
-74.371
-74.065
-73.934
-73.973
-74.178
-74.545
-75.068
-75.742
-76.561
-77.52
-78.613
-79.834
-81.176
-82.634
-84.199
-85.864
-87.623
-89.467
-91.388
-93.378
-95.428
-97.528
-99.67
-101.845
-104.042
-106.251
-108.464
-110.671
-112.861
-115.025
-117.154
-119.237
-121.266
-123.233
-125.127
-126.941
-128.666
-130.296
-131.821
-133.236
-134.534
-135.71
-136.757
-137.672
-138.45
-139.089
-139.585
-139.937
-140.143
-140.204
-140.12
-139.892
-139.523
-139.015
-138.372
-137.6
-136.702
-135.687
-134.559
-133.326
-131.996
-130.577
-129.076
-127.502
-125.864
-124.17
-122.43
-120.653
-118.847
-117.021
-115.184
-113.344
-111.509
-109.685
-107.881
-106.103
-104.357
-102.648
-100.982
-99.362
-97.793
-96.278
-94.819
-93.418
-92.074
-90.788
-89.56
-88.387
-87.268
-86.199
-85.177
-84.199
-83.259
-82.354
-81.478
-80.625
-79.791
-78.968
-78.152
-77.335
-76.513
-75.679
-74.827
-73.951
-73.048
-72.111
-71.136
-70.118
-69.055
-67.941
-66.774
-65.551
-64.27
-62.929
-61.528
-60.066
-58.543
-56.961
-55.32
-53.623
-51.872
-50.071
-48.222
-46.33
-44.398
-42.431
-40.435
-38.414
-36.373
-34.319
-32.257
-30.193
-28.133
-26.081
-24.044
-22.027
-20.036
-18.075
-16.149
-14.265
-12.425
-10.635
-8.898
-7.219
-5.601
-4.047
-2.559
-1.139
0.21
1.488
2.693
3.826
4.886
5.873
6.789
7.635
8.412
9.122
9.767
10.351
10.876
11.346
11.764
12.133
12.457
12.74
12.987
13.2
13.386
13.547
13.688
13.814
13.929
14.038
14.146
14.256
14.374
14.502
14.646
14.809
14.994
15.206
15.447
15.72
16.028
16.373
16.758
17.182
17.649
18.158
18.71
19.305
19.943
20.623
21.345
22.106
22.906
23.743
24.615
25.519
26.453
27.414
28.4
29.407
30.433
31.474
32.528
33.591
34.659
35.731
36.803
37.872
38.936
39.992
41.039
42.074
43.098
44.11
45.109
46.095
47.07
48.034
48.989
49.938
50.883
51.827
52.774
53.728
54.696
55.681
56.69
57.729
58.803
59.919
61.084
62.303
63.582
64.927
66.344
67.839
69.417
71.083
72.842
74.698
76.654
78.712
80.874
83.14
85.51
87.981
90.551
93.216
95.973
98.815
101.736
104.729
107.785
110.896
114.049
117.232
120.428
123.62
126.792
129.927
133.007
136.013
138.927
141.736
144.425
146.983
149.394
151.643
153.716
155.601
157.286
158.76
160.015
161.043
161.84
162.406
162.748
162.868
162.766
162.438
161.873
161.067
160.018
158.732
157.213
155.473
153.528
151.407
149.155
146.81
144.411
141.989
139.573
137.203
134.923
132.781
130.827
129.114
127.681
126.553
125.744
125.243
125.03
125.087
125.358
125.77
126.235
126.655
126.949
127.061
126.91
126.335
125.227
123.566
121.457
119.215
117.141
115.418
114.288
114.147
115.223
117.473
120.452
123.134
124.633
124.37
121.589
115.488
105.557
92.93
80.73
72.515
71.515
76.807
84.183
92.433
101.51
117.51
152.935
214.029
304.765
421.812
547.368
663.828
751.276
790.378
777.664
716.172
615.106
493.284
365.024
242.713
139.503
61.811
12.718
-8.537
-9.405
-1.537
4.277
0.943
-15.369
-40.287
-66.157
-88.608
-103.171
-110.807
-116.914
-123.425
-131.528
-140.559
-146.951
-149.184
-147.234
-141.106
-131.657
-119.605
-105.175
-88.945
-71.708
-53.965
-36.09
-18.397
-1.035
15.846
32.025
47.358
61.731
74.942
86.806
97.186
105.971
113.152
118.775
122.901
125.628
127.087
127.428
126.808
125.367
123.212
120.453
117.23
113.718
110.136
106.695
103.55
100.816
98.57
96.861
95.717
95.142
95.092
95.509
96.337
97.528
99.052
100.875
102.936
105.149
107.406
109.594
111.631
113.461
115.042
116.351
117.374
118.114
118.598
118.87
118.963
118.906
118.722
118.428
118.058
117.651
117.251
116.905
116.65
116.509
116.503
116.644
116.94
117.39
117.987
118.713
119.558
120.511
121.564
122.713
123.947
125.254
126.624
128.044
129.502
130.988
132.492
134.002
135.51
137.009
138.49
139.949
141.38
142.774
144.124
145.421
146.656
147.821
148.91
149.914
150.826
151.64
152.351
152.954
153.444
153.819
154.074
154.206
154.212
154.09
153.837
153.452
152.933
152.278
151.487
150.558
149.492
148.287
146.944
145.464
143.847
142.094
140.206
138.187
136.037
133.759
131.356
128.833
126.192
123.438
120.577
117.613
114.552
111.4
108.162
104.846
101.457
98.003
94.492
90.93
87.326
83.69
80.03
76.356
72.677
69.003
65.344
61.71
58.111
54.558
51.059
47.626
44.266
40.991
37.807
34.725
31.751
28.893
26.157
23.548
21.071
18.731
16.531
14.472
12.557
10.787
9.162
7.681
6.343
5.146
4.087
3.161
2.364
1.69
1.133
0.686
0.342
0.093
-0.07
-0.156
-0.172
-0.129
-0.037
0.097
0.262
0.449
0.648
0.852
1.051
1.238
1.405
1.546
1.655
1.726
1.755
1.738
1.67
1.549
1.372
1.139
0.847
0.496
0.088
-0.378
-0.899
-1.473
-2.098
-2.769
-3.484
-4.238
-5.026
-5.845
-6.689
-7.554
-8.435
-9.327
-10.223
-11.121
-12.014
-12.899
-13.769
-14.623
-15.455
-16.263
-17.043
-17.793
-18.511
-19.195
-19.843
-20.454
-21.028
-21.563
-22.059
-22.517
-22.936
-23.318
-23.664
-23.975
-24.253
-24.501
-24.719
-24.912
-25.08
-25.226
-25.352
-25.461
-25.554
-25.633
-25.701
-25.76
-25.812
-25.859
-25.901
-25.942
-25.982
-26.022
-26.063
-26.106
-26.152
-26.201
-26.254
-26.312
-26.374
-26.442
-26.515
-26.594
-26.68
-26.772
-26.869
-26.973
-27.082
-27.195
-27.313
-27.435
-27.562
-27.692
-27.827
-27.967
-28.112
-28.262
-28.418
-28.582
-28.752
-28.931
-29.119
-29.317
-29.526
-29.748
-29.984
-30.235
-30.503
-30.788
-31.092
-31.416
-31.76
-32.125
-32.512
-32.922
-33.354
-33.81
-34.292
-34.798
-35.331
-35.891
-36.479
-37.095
-37.739
-38.412
-39.112
-39.84
-40.594
-41.373
-42.177
-43.004
-43.851
-44.717
-45.599
-46.495
-47.4
-48.312
-49.227
-50.141
-51.051
-51.952
-52.84
-53.712
-54.563
-55.39
-56.188
-56.951
-57.675
-58.356
-58.987
-59.563
-60.079
-60.53
-60.909
-61.212
-61.434
-61.569
-61.612
-61.56
-61.407
-61.151
-60.788
-60.316
-59.733
-59.038
-58.231
-57.314
-56.289
-55.157
-53.922
-52.587
-51.158
-49.639
-48.036
-46.355
-44.603
-42.79
-40.927
-39.025
-37.097
-35.156
-33.216
-31.292
-29.397
-27.545
-25.749
-24.019
-22.369
-20.811
-19.362
-18.037
-16.846
-15.802
-14.915
-14.195
-13.652
-13.289
-13.103
-13.093
-13.261
-13.614
-14.166
-14.925
-15.893
-17.07
-18.451
-20.026
-21.786
-23.706
-25.749
-27.876
-30.053
-32.252
-34.458
-36.644
-38.769
-40.789
-42.64
-44.279
-45.678
-46.807
-47.648
-48.207
-48.496
-48.559
-48.466
-48.278
-48.07
-47.926
-47.908
-48.111
-48.622
-49.537
-51.039
-53.219
-56.026
-59.338
-62.848
-66.192
-69.144
-71.421
-72.541
-72.29
-70.776
-68.387
-66.112
-64.971
-65.534
-68.235
-73.526
-81.593
-91.867
-102.961
-112.764
-117.677
-114.538
-102.244
-78.51
-44.479
-4.479
41.872
92.871
150.129
222.546
310.071
407.594
503.951
574.616
600.445
573.182
492.546
375.554
245.505
120.545
17.894
-55.081
-102.008
-127.844
-142.791
-157.413
-174.476
-194.848
-216.466
-234.648
-249.408
-262.378
-274.766
-288.694
-304.18
-319.615
-333.808
-345.417
-353.178
-356.648
-355.737
-350.515
-341.482
-329.302
-314.62
-298.176
-280.74
-262.873
-244.994
-227.428
-210.35
-193.899
-178.216
-163.41
-149.591
-136.916
-125.532
-115.527
-106.953
-99.798
-93.979
-89.394
-85.923
-83.412
-81.698
-80.641
-80.112
-80.014
-80.273
-80.786
-81.424
-82.03
-82.444
-82.553
-82.288
-81.607
-80.496
-78.956
-77.006
-74.702
-72.114
-69.297
-66.3
-63.15
-59.869
-56.503
-53.117
-49.799
-46.64
-43.71
-41.05
-38.692
-36.653
-34.94
-33.546
-32.443
-31.589
-30.95
-30.497
-30.208
-30.067
-30.044
-30.103
-30.201
-30.294
-30.343
-30.324
-30.21
-29.986
-29.64
-29.162
-28.557
-27.833
-26.997
-26.052
-25.002
-23.847
-22.59
-21.239
-19.799
-18.28
-16.687
-15.029
-13.312
-11.544
-9.733
-7.883
-6.002
-4.092
-2.159
-0.21
1.747
3.704
5.653
7.586
9.494
11.368
13.2
14.983
16.708
18.369
19.959
21.473
22.903
24.246
25.494
26.645
27.693
28.633
29.462
30.177
30.772
31.245
31.593
31.812
31.901
31.858
31.679
31.365
30.913
30.323
29.593
28.725
27.716
26.569
25.284
23.862
22.305
20.617
18.8
16.857
14.793
12.612
10.317
7.915
5.41
2.808
0.116
-2.661
-5.514
-8.437
-11.421
-14.459
-17.542
-20.66
-23.806
-26.971
-30.145
-33.319
-36.485
-39.632
-42.751
-45.834
-48.872
-51.855
-54.774
-57.622
-60.39
-63.072
-65.661
-68.149
-70.532
-72.804
-74.961
-76.998
-78.912
-80.7
-82.359
-83.889
-85.287
-86.554
-87.69
-88.696
-89.573
-90.325
-90.952
-91.46
-91.85
-92.129
-92.299
-92.367
-92.337
-92.215
-92.008
-91.721
-91.362
-90.938
-90.454
-89.918
-89.336
-88.715
-88.061
-87.38
-86.679
-85.964
-85.239
-84.511
-83.784
-83.063
-82.354
-81.66
-80.986
-80.334
-79.709
-79.112
-78.547
-78.015
-77.518
-77.058
-76.635
-76.249
-75.901
-75.591
-75.317
-75.079
-74.875
-74.703
-74.561
-74.447
-74.36
-74.296
-74.253
-74.23
-74.223
-74.23
-74.25
-74.279
-74.316
-74.358
-74.404
-74.451
-74.497
-74.54
-74.578
-74.61
-74.634
-74.649
-74.652
-74.643
-74.62
-74.583
-74.532
-74.466
-74.384
-74.288
-74.177
-74.053
-73.915
-73.766
-73.606
-73.437
-73.259
-73.074
-72.883
-72.687
-72.488
-72.285
-72.08
-71.873
-71.664
-71.455
-71.245
-71.035
-70.824
-70.613
-70.402
-70.19
-69.977
-69.763
-69.548
-69.331
-69.111
-68.888
-68.659
-68.425
-68.184
-67.934
-67.673
-67.401
-67.114
-66.812
-66.493
-66.153
-65.793
-65.41
-65.002
-64.569
-64.109
-63.621
-63.104
-62.558
-61.983
-61.378
-60.743
-60.079
-59.385
-58.663
-57.914
-57.139
-56.338
-55.514
-54.669
-53.804
-52.922
-52.025
-51.114
-50.194
-49.265
-48.332
-47.396
-46.46
-45.528
-44.6
-43.681
-42.772
-41.876
-40.993
-40.127
-39.277
-38.446
-37.635
-36.844
-36.075
-35.329
-34.605
-33.905
-33.23
-32.578
-31.95
-31.344
-30.759
-30.192
-29.641
-29.103
-28.575
-28.054
-27.535
-27.018
-26.496
-25.967
-25.428
-24.872
-24.298
-23.7
-23.076
-22.42
-21.731
-21.005
-20.239
-19.433
-18.582
-17.686
-16.741
-15.744
-14.693
-13.584
-12.411
-11.17
-9.855
-8.465
-6.995
-5.443
-3.808
-2.091
-0.291
1.586
3.539
5.568
7.671
9.852
12.109
14.445
16.86
19.357
21.938
24.603
27.35
30.173
33.069
36.038
39.083
42.211
45.425
48.718
52.087
55.525
59.016
62.541
66.069
69.553
72.96
76.269
79.47
82.565
85.559
88.449
91.242
93.944
96.561
99.106
101.583
103.985
106.329
108.643
110.976
113.41
115.994
118.746
121.674
124.752
127.946
131.212
134.483
137.669
140.698
143.498
146.018
148.232
150.09
151.526
152.46
152.772
152.379
151.234
149.302
146.576
143.086
138.877
134.037
128.706
122.997
117.018
110.874
104.629
98.368
92.192
86.201
80.526
75.287
70.573
66.472
63.059
60.367
58.4
57.12
56.421
56.21
56.419
56.951
57.722
58.632
59.555
60.362
60.953
61.202
60.92
59.987
58.375
56.159
53.663
51.293
49.331
48.068
47.932
49.153
51.637
55.008
58.21
59.948
59.51
56.467
50.05
39.88
26.643
11.463
-2.428
-9.812
-8.305
2.999
24.497
52.28
85.096
126.187
177.554
244.827
332.145
434.446
541.505
637.128
701.795
721.29
691.274
615.455
504.222
373.539
237.227
108.763
2.039
-75.769
-121.481
-139.053
-139.561
-132.961
-128.993
-131.79
-140.695
-155.342
-171.29
-186.228
-199.662
-209.719
-218.381
-226.592
-233.467
-238.886
-241.015
-238.67
-232.203
-221.946
-208.767
-193.624
-177.142
-160.069
-143.016
-126.327
-110.25
-94.865
-80.224
-66.449
-53.615
-41.808
-31.163
-21.751
-13.627
-6.827
-1.286
3.1
6.432
8.858
10.523
11.54
12.029
12.083
11.751
11.12
10.289
9.388
8.598
8.046
7.81
7.945
8.463
9.363
10.641
12.258
14.144
16.251
18.534
20.963
23.535
26.218
28.957
31.68
34.285
36.698
38.874
40.781
42.401
43.727
44.757
45.511
46.035
46.362
46.523
46.541
46.427
46.205
45.913
45.589
45.283
45.032
44.864
44.802
44.865
45.066
45.414
45.909
46.538
47.294
48.172
49.166
50.276
51.496
52.817
54.231
55.726
57.293
58.925
60.61
62.34
64.105
65.896
67.706
69.531
71.362
73.191
75.008
76.805
78.57
80.295
81.97
83.584
85.128
86.593
87.97
89.252
90.432
91.504
92.46
93.296
94.007
94.588
95.037
95.35
95.524
95.557
95.448
95.195
94.797
94.254
93.564
92.728
91.746
90.62
89.349
87.936
86.381
84.688
82.857
80.891
78.794
76.569
74.22
71.751
69.168
66.474
63.675
60.778
57.786
54.708
51.548
48.313
45.01
41.645
38.226
34.76
31.256
27.72
24.16
20.586
17.004
13.425
9.855
6.305
2.781
-0.706
-4.149
-7.539
-10.868
-14.127
-17.308
-20.403
-23.406
-26.31
-29.109
-31.796
-34.367
-36.817
-39.142
-41.338
-43.403
-45.333
-47.128
-48.786
-50.307
-51.69
-52.937
-54.049
-55.028
-55.878
-56.601
-57.202
-57.686
-58.057
-58.322
-58.486
-58.556
-58.54
-58.444
-58.277
-58.046
-57.759
-57.425
-57.051
-56.645
-56.216
-55.77
-55.315
-54.858
-54.405
-53.962
-53.536
-53.13
-52.752
-52.403
-52.09
-51.814
-51.578
-51.386
-51.237
-51.133
-51.074
-51.059
-51.088
-51.158
-51.268
-51.413
-51.591
-51.798
-52.03
-52.28
-52.545
-52.819
-53.095
-53.369
-53.634
-53.884
-54.113
-54.317
-54.49
-54.626
-54.722
-54.772
-54.773
-54.721
-54.613
-54.446
-54.217
-53.926
-53.569
-53.147
-52.659
-52.106
-51.488
-50.806
-50.064
-49.263
-48.407
-47.498
-46.541
-45.541
-44.501
-43.428
-42.327
-41.203
-40.062
-38.911
-37.754
-36.597
-35.447
-34.308
-33.184
-32.081
-31.003
-29.953
-28.934
-27.949
-27.001
-26.091
-25.221
-24.391
-23.603
-22.855
-22.148
-21.48
-20.849
-20.253
-19.689
-19.155
-18.647
-18.161
-17.692
-17.236
-16.787
-16.342
-15.894
-15.437
-14.966
-14.476
-13.961
-13.416
-12.835
-12.214
-11.549
-10.836
-10.071
-9.251
-8.374
-7.438
-6.441
-5.382
-4.26
-3.076
-1.829
-0.521
0.848
2.275
3.758
5.295
6.882
8.517
10.195
11.912
13.665
15.447
17.254
19.082
20.923
22.773
24.624
26.472
28.31
30.132
31.933
33.705
35.445
37.146
38.804
40.414
41.972
43.472
44.911
46.286
47.593
48.829
49.991
51.077
52.086
53.014
53.862
54.628
55.311
55.91
56.426
56.859
57.209
57.477
57.665
57.775
57.81
57.772
57.665
57.493
57.261
56.974
56.636
56.252
55.829
55.371
54.886
54.381
53.861
53.334
52.807
52.288
51.785
51.306
50.858
50.449
50.085
49.775
49.526
49.345
49.24
49.217
49.283
49.446
49.711
50.083
50.566
51.164
51.88
52.715
53.671
54.747
55.942
57.253
58.678
60.214
61.854
63.592
65.421
67.331
69.313
71.356
73.447
75.573
77.716
79.862
81.994
84.096
86.151
88.141
90.05
91.861
93.56
95.131
96.56
97.829
98.922
99.825
100.522
101.001
101.249
101.256
101.017
100.531
99.797
98.817
97.587
96.099
94.35
92.34
90.073
87.557
84.805
81.839
78.694
75.419
72.058
68.655
65.243
61.843
58.487
55.206
52.036
49.027
46.212
43.616
41.273
39.213
37.433
35.902
34.555
33.288
32.025
30.721
29.319
27.766
26.002
23.946
21.533
18.731
15.472
11.638
7.203
2.214
-3.097
-8.25
-12.768
-16.252
-18.239
-18.291
-16.319
-12.446
-7.267
-2.025
2.213
4.642
4.358
0.883
-5.345
-13.503
-21.881
-27.464
-27.496
-19.465
-0.28
31.25
73.431
124.638
182.217
244.399
314.201
392.18
473.04
547.509
599.569
613.79
585.554
516.753
415.889
299.052
178.697
67.351
-21.063
-82.928
-118.911
-135.276
-145.935
-157.759
-172.828
-190.498
-205.174
-215.725
-224.171
-231.921
-241.394
-252.954
-264.909
-275.918
-284.54
-289.277
-289.524
-285.157
-276.222
-263.265
-247.018
-228.126
-207.361
-185.597
-163.488
-141.541
-120.15
-99.519
-79.852
-61.414
-44.446
-29.161
-15.727
-4.235
5.27
12.777
18.335
22.039
24.043
24.542
23.763
21.941
19.281
15.971
12.212
8.225
4.271
0.61
-2.576
-5.166
-7.08
-8.279
-8.731
-8.431
-7.429
-5.804
-3.647
-1.057
1.893
5.137
8.586
12.133
15.648
18.992
22.078
24.852
27.273
29.321
30.981
32.247
33.151
33.737
34.046
34.118
33.982
33.662
33.198
32.637
32.029
31.429
30.874
30.386
29.987
29.693
29.513
29.453
29.506
29.661
29.908
30.246
30.671
31.182
31.774
32.439
33.171
33.962
34.805
35.697
36.63
37.599
38.6
39.63
40.686
41.767
42.87
43.989
45.121
46.259
47.397
48.53
49.652
50.755
51.835
52.884
53.898
54.872
55.8
56.676
57.495
58.252
58.94
59.555
60.091
60.542
60.903
61.17
61.336
61.396
61.345
61.18
60.893
60.483
59.943
59.271
58.461
57.51
56.416
55.175
53.784
52.241
50.545
48.694
46.688
44.527
42.211
39.742
37.122
34.353
31.438
28.383
25.191
21.867
18.42
14.855
11.18
7.404
3.536
-0.414
-4.436
-8.519
-12.651
-16.821
-21.017
-25.226
-29.435
-33.633
-37.805
-41.938
-46.02
-50.038
-53.979
-57.83
-61.578
-65.214
-68.724
-72.099
-75.328
-78.404
-81.318
-84.061
-86.63
-89.017
-91.22
-93.234
-95.058
-96.69
-98.13
-99.38
-100.441
-101.317
-102.011
-102.528
-102.874
-103.056
-103.081
-102.956
-102.692
-102.296
-101.779
-101.152
-100.424
-99.608
-98.714
-97.754
-96.741
-95.685
-94.598
-93.492
-92.378
-91.266
-90.166
-89.089
-88.042
-87.035
-86.075
-85.169
-84.324
-83.545
-82.836
-82.203
-81.647
-81.171
-80.777
-80.465
-80.234
-80.085
-80.016
-80.024
-80.107
-80.261
-80.483
-80.767
-81.11
-81.505
-81.948
-82.432
-82.951
-83.498
-84.068
-84.653
-85.248
-85.846
-86.442
-87.028
-87.6
-88.152
-88.679
-89.176
-89.639
-90.065
-90.449
-90.789
-91.082
-91.326
-91.52
-91.662
-91.754
-91.793
-91.782
-91.721
-91.612
-91.455
-91.253
-91.008
-90.723
-90.4
-90.042
-89.652
-89.233
-88.789
-88.321
-87.833
-87.328
-86.809
-86.279
-85.739
-85.192
-84.64
-84.085
-83.529
-82.972
-82.418
-81.865
-81.315
-80.768
-80.223
-79.681
-79.139
-78.597
-78.053
-77.505
-76.949
-76.384
-75.807
-75.214
-74.604
-73.971
-73.314
-72.63
-71.915
-71.166
-70.381
-69.558
-68.694
-67.788
-66.839
-65.844
-64.805
-63.721
-62.591
-61.417
-60.199
-58.939
-57.639
-56.3
-54.925
-53.517
-52.08
-50.617
-49.133
-47.634
-46.126
-44.613
-43.103
-41.602
-40.118
-38.658
-37.229
-35.837
-34.491
-33.198
-31.963
-30.795
-29.698
-28.679
-27.742
-26.893
-26.135
-25.47
-24.9
-24.428
-24.053
-23.776
-23.594
-23.507
-23.513
-23.609
-23.791
-24.054
-24.394
-24.804
-25.279
-25.809
-26.386
-27.001
-27.644
-28.305
-28.973
-29.637
-30.286
-30.909
-31.496
-32.034
-32.514
-32.925
-33.258
-33.502
-33.65
-33.694
-33.627
-33.446
-33.147
-32.726
-32.183
-31.518
-30.733
-29.829
-28.809
-27.676
-26.437
-25.098
-23.664
-22.145
-20.552
-18.897
-17.194
-15.46
-13.709
-11.959
-10.226
-8.526
-6.877
-5.293
-3.785
-2.367
-1.054
0.142
1.209
2.135
2.913
3.534
3.992
4.284
4.407
4.365
4.164
3.806
3.291
2.618
1.778
0.768
-0.405
-1.736
-3.219
-4.84
-6.581
-8.414
-10.29
-12.167
-14.007
-15.769
-17.419
-18.912
-20.189
-21.2
-21.89
-22.211
-22.143
-21.667
-20.763
-19.435
-17.696
-15.586
-13.203
-10.652
-8.033
-5.464
-3.041
-0.887
0.817
1.97
2.559
2.677
2.562
2.474
2.6
3.165
4.452
6.615
9.638
13.143
16.385
18.598
19.099
17.473
13.573
7.181
-1.567
-11.405
-20.696
-26.588
-24.774
-13.605
7.263
37.157
71.079
107.487
149.359
199.056
262.984
344.481
437.276
532.769
617.826
674.966
692.315
662.281
581.642
461.737
321.605
182.895
70.572
-4.554
-45.082
-60.831
-70.623
-85.519
-106.635
-131.359
-151.729
-164.263
-171.636
-176.983
-184.094
-194.589
-207.333
-220.887
-233.876
-245.01
-253.08
-257.31
-257.37
-253.245
-245.412
-234.494
-221.032
-205.736
-189.413
-172.637
-155.836
-139.303
-123.129
-107.408
-92.252
-77.724
-63.895
-50.892
-38.873
-27.977
-18.307
-9.883
-2.658
3.435
8.485
12.605
15.927
18.577
20.671
22.291
23.487
24.337
24.943
25.442
26.011
26.785
27.847
29.259
31.045
33.211
35.756
38.643
41.806
45.188
48.74
52.429
56.246
60.156
64.102
68.008
71.772
75.318
78.601
81.585
84.25
86.589
88.601
90.309
91.759
92.992
94.041
94.936
95.692
96.34
96.92
97.476
98.059
98.714
99.47
100.355
101.391
102.595
103.98
105.549
107.292
109.203
111.281
113.521
115.923
118.483
121.191
124.038
127.011
130.101
133.294
136.58
139.945
143.374
146.856
150.377
153.927
157.492
161.056
164.605
168.121
171.587
174.987
178.304
181.521
184.622
187.591
190.414
193.077
195.568
197.874
199.984
201.888
203.577
205.043
206.281
207.285
208.051
208.578
208.865
208.911
208.718
208.289
207.629
206.741
205.633
204.311
202.784
201.062
199.154
197.071
194.826
192.429
189.894
187.233
184.46
181.588
178.631
175.6
172.51
169.372
166.2
163.004
159.796
156.587
153.387
150.205
147.05
143.929
140.85
137.817
134.835
131.909
129.041
126.233
123.485
120.798
118.171
115.603
113.09
110.63
108.218
105.85
103.521
101.225
98.958
96.712
94.483
92.264
90.051
87.837
85.618
83.389
81.145
78.883
76.598
74.288
71.95
69.582
67.184
64.753
62.292
59.8
57.279
54.731
52.159
49.568
46.96
44.34
41.713
39.086
36.464
33.853
31.26
28.692
26.156
23.659
21.208
18.808
16.466
14.186
11.976
9.837
7.775
5.792
3.89
2.072
0.339
-1.31
-2.874
-4.355
-5.755
-7.076
-8.323
-9.498
-10.608
-11.656
-12.65
-13.594
-14.497
-15.365
-16.205
-17.025
-17.834
-18.639
-19.449
-20.272
-21.116
-21.989
-22.899
-23.853
-24.857
-25.917
-27.039
-28.227
-29.485
-30.817
-32.224
-33.709
-35.272
-36.914
-38.632
-40.426
-42.294
-44.233
-46.237
-48.305
-50.429
-52.606
-54.828
-57.09
-59.384
-61.704
-64.042
-66.39
-68.741
-71.086
-73.417
-75.727
-78.006
-80.247
-82.442
-84.585
-86.668
-88.685
-90.629
-92.496
-94.281
-95.979
-97.588
-99.104
-100.526
-101.851
-103.081
-104.214
-105.251
-106.195
-107.047
-107.811
-108.49
-109.089
-109.611
-110.063
-110.45
-110.778
-111.055
-111.287
-111.482
-111.648
-111.793
-111.925
-112.053
-112.185
-112.33
-112.496
-112.692
-112.925
-113.204
-113.537
-113.931
-114.392
-114.929
-115.547
-116.251
-117.048
-117.942
-118.937
-120.036
-121.242
-122.556
-123.981
-125.517
-127.164
-128.921
-130.788
-132.761
-134.837
-137.015
-139.288
-141.652
-144.103
-146.633
-149.236
-151.906
-154.636
-157.418
-160.244
-163.107
-165.998
-168.909
-171.832
-174.758
-177.677
-180.581
-183.46
-186.304
-189.106
-191.856
-194.546
-197.168
-199.714
-202.177
-204.55
-206.826
-208.999
-211.063
-213.012
-214.841
-216.546
-218.123
-219.57
-220.883
-222.059
-223.098
-223.997
-224.754
-225.367
-225.835
-226.154
-226.324
-226.342
-226.206
-225.915
-225.468
-224.864
-224.106
-223.195
-222.133
-220.921
-219.561
-218.055
-216.404
-214.608
-212.665
-210.571
-208.325
-205.927
-203.378
-200.677
-197.825
-194.824
-191.679
-188.392
-184.966
-181.4
-177.685
-173.819
-169.809
-165.667
-161.409
-157.062
-152.646
-148.184
-143.708
-139.242
-134.798
-130.383
-125.983
-121.585
-117.188
-112.804
-108.457
-104.172
-99.952
-95.798
-91.709
-87.663
-83.645
-79.628
-75.564
-71.426
-67.221
-62.976
-58.758
-54.65
-50.705
-46.964
-43.454
-40.187
-37.194
-34.503
-32.134
-30.128
-28.535
-27.418
-26.874
-26.966
-27.707
-29.077
-31.002
-33.373
-36.1
-39.093
-42.261
-45.54
-48.864
-52.167
-55.402
-58.501
-61.374
-63.921
-66.016
-67.558
-68.5
-68.827
-68.573
-67.817
-66.632
-65.121
-63.406
-61.598
-59.807
-58.136
-56.654
-55.464
-54.734
-54.583
-55.062
-56.095
-57.427
-58.768
-59.869
-60.406
-59.95
-58.172
-54.973
-50.676
-46.075
-42.067
-39.387
-38.685
-40.63
-45.653
-53.574
-63.194
-72.448
-78.928
-80.109
-73.601
-56.879
-27.287
15.644
69.449
131.136
196.873
265.89
341.711
423.358
505.559
576.835
618.882
620.337
578.279
497.722
393.474
279.261
166.814
67.689
-12.392
-70.833
-109.183
-135.572
-157.034
-177.059
-196.379
-211.724
-221.176
-226.608
-230.553
-235.706
-243.387
-252.743
-262.33
-270.821
-276.936
-279.388
-277.457
-270.952
-260.024
-245.324
-227.61
-207.545
-185.934
-163.674
-141.451
-119.741
-98.848
-78.884
-59.984
-42.357
-26.19
-11.632
1.225
12.354
21.762
29.477
35.567
40.161
43.432
45.585
46.844
47.392
47.368
46.904
46.145
45.259
44.461
43.948
43.85
44.251
45.199
46.71
48.797
51.437
54.562
58.082
61.905
65.951
70.172
74.526
78.947
83.354
87.641
91.698
95.46
98.884
101.936
104.604
106.879
108.767
110.304
111.54
112.518
113.277
113.845
114.244
114.511
114.689
114.824
114.967
115.154
115.411
115.764
116.23
116.823
117.551
118.411
119.392
120.488
121.695
123.01
124.43
125.949
127.558
129.248
131.01
132.832
134.706
136.621
138.567
140.533
142.511
144.49
146.464
148.423
150.356
152.252
154.099
155.886
157.601
159.234
160.772
162.204
163.52
164.711
165.768
166.683
167.448
168.056
168.502
168.781
168.889
168.823
168.581
168.162
167.564
166.789
165.837
164.71
163.408
161.937
160.298
158.497
156.537
154.424
152.165
149.764
147.229
144.566
141.781
138.884
135.879
132.777
129.585
126.311
122.964
119.553
116.085
112.57
109.015
105.428
101.817
98.188
94.55
90.909
87.271
83.642
80.028
76.435
72.869
69.333
65.832
62.372
58.954
55.584
52.264
48.996
45.783
42.628
39.531
36.496
33.522
30.611
27.763
24.98
22.26
19.603
17.009
14.476
12.004
9.591
7.236
4.938
2.696
0.508
-1.626
-3.708
-5.739
-7.719
-9.65
-11.532
-13.365
-15.15
-16.888
-18.577
-20.219
-21.811
-23.354
-24.847
-26.287
-27.674
-29.007
-30.283
-31.501
-32.657
-33.751
-34.779
-35.737
-36.625
-37.437
-38.171
-38.824
-39.394
-39.876
-40.268
-40.569
-40.774
-40.884
-40.894
-40.805
-40.614
-40.322
-39.928
-39.431
-38.834
-38.136
-37.341
-36.45
-35.465
-34.392
-33.233
-31.994
-30.68
-29.296
-27.849
-26.346
-24.794
-23.202
-21.577
-19.929
-18.266
-16.598
-14.934
-13.283
-11.654
-10.058
-8.503
-6.997
-5.551
-4.172
-2.868
-1.647
-0.515
0.52
1.454
2.281
2.997
3.599
4.084
4.45
4.696
4.823
4.829
4.718
4.491
4.152
3.704
3.154
2.506
1.768
0.945
0.047
-0.92
-1.947
-3.025
-4.146
-5.3
-6.48
-7.676
-8.879
-10.08
-11.272
-12.446
-13.594
-14.711
-15.79
-16.824
-17.81
-18.743
-19.618
-20.434
-21.187
-21.875
-22.498
-23.054
-23.543
-23.967
-24.327
-24.624
-24.861
-25.042
-25.17
-25.248
-25.282
-25.274
-25.23
-25.153
-25.046
-24.916
-24.764
-24.595
-24.413
-24.22
-24.02
-23.813
-23.603
-23.388
-23.169
-22.947
-22.718
-22.483
-22.239
-21.983
-21.715
-21.431
-21.129
-20.806
-20.46
-20.086
-19.681
-19.242
-18.763
-18.242
-17.675
-17.058
-16.387
-15.66
-14.875
-14.031
-13.125
-12.158
-11.128
-10.036
-8.882
-7.668
-6.396
-5.068
-3.688
-2.263
-0.795
0.707
2.238
3.792
5.361
6.941
8.527
10.113
11.696
13.272
14.837
16.385
17.913
19.416
20.888
22.324
23.718
25.068
26.37
27.625
28.835
30.003
31.132
32.228
33.298
34.35
35.391
36.426
37.463
38.51
39.58
40.69
41.855
43.083
44.381
45.753
47.198
48.714
50.292
51.909
53.545
55.183
56.809
58.428
60.045
61.666
63.295
64.931
66.585
68.288
70.077
71.979
74.026
76.247
78.683
81.406
84.476
87.934
91.807
96.086
100.743
105.755
111.084
116.677
122.456
128.31
134.109
139.751
145.137
150.164
154.724
158.666
161.859
164.215
165.66
166.164
165.717
164.303
161.932
158.661
154.569
149.778
144.437
138.662
132.573
126.308
120.002
113.82
107.912
102.374
97.298
92.759
88.818
85.551
82.997
81.141
79.956
79.399
79.372
79.788
80.535
81.445
82.394
83.273
83.964
84.383
84.441
84.037
83.104
81.612
79.507
76.71
73.218
69.098
64.551
59.95
55.668
52.033
49.48
48.564
49.581
52.536
57.257
63.125
69.428
75.652
80.828
83.571
84.321
85.082
87.243
93.358
102.672
110.14
116.115
122.544
134.552
164.774
218.305
295.627
396.652
510.739
626.693
732.711
808.048
836.784
810.608
727.016
600.784
455.412
311.923
192.298
107.992
56.502
31.935
21.002
9.505
-6.699
-28.569
-53.021
-73.706
-90.223
-104.52
-118.226
-133.995
-151.929
-170.1
-187.041
-201.199
-211.08
-216.177
-216.432
-211.911
-203.189
-191.017
-176.046
-159.036
-140.828
-122.033
-103.152
-84.619
-66.658
-49.485
-33.353
-18.47
-5.073
6.634
16.54
24.584
30.757
35.106
37.706
38.672
38.176
36.422
33.645
30.077
25.905
21.322
16.524
11.733
7.214
3.167
-0.284
-3.057
-5.119
-6.448
-7.027
-6.877
-6.07
-4.693
-2.843
-0.613
1.936
4.724
7.654
10.615
13.465
16.106
18.483
20.56
22.32
23.751
24.845
25.617
26.115
26.382
26.461
26.39
26.192
25.903
25.573
25.253
25
24.858
24.853
25.006
25.334
25.852
26.567
27.48
28.578
29.853
31.3
32.915
34.698
36.642
38.735
40.967
43.325
45.797
48.375
51.044
53.792
56.606
59.474
62.385
65.328
68.292
71.261
74.222
77.159
80.057
82.901
85.676
88.366
90.956
93.432
95.781
97.99
100.047
101.939
103.656
105.187
106.523
107.653
108.57
109.266
109.735
109.971
109.971
109.731
109.25
108.525
107.559
106.353
104.91
103.234
101.329
99.202
96.859
94.308
91.558
88.617
85.496
82.204
78.754
75.156
71.423
67.568
63.602
59.54
55.393
51.175
46.9
42.581
38.231
33.864
29.493
25.131
20.79
16.483
12.221
8.014
3.872
-0.196
-4.183
-8.081
-11.885
-15.59
-19.192
-22.688
-26.077
-29.356
-32.527
-35.59
-38.546
-41.398
-44.15
-46.805
-49.368
-51.844
-54.238
-56.555
-58.802
-60.985
-63.11
-65.185
-67.217
-69.211
-71.176
-73.119
-75.044
-76.959
-78.869
-80.779
-82.693
-84.615
-86.547
-88.491
-90.448
-92.419
-94.402
-96.397
-98.401
-100.411
-102.422
-104.431
-106.432
-108.419
-110.386
-112.327
-114.236
-116.105
-117.928
-119.7
-121.412
-123.06
-124.637
-126.137
-127.556
-128.889
-130.13
-131.276
-132.325
-133.273
-134.118
-134.861
-135.499
-136.035
-136.47
-136.805
-137.045
-137.193
-137.255
-137.237
-137.145
-136.987
-136.771
-136.505
-136.2
-135.865
-135.508
-135.141
-134.772
-134.41
-134.066
-133.747
-133.462
-133.218
-133.021
-132.879
-132.797
-132.779
-132.83
-132.954
-133.151
-133.425
-133.777
-134.206
-134.713
-135.295
-135.952
-136.68
-137.475
-138.334
-139.252
-140.223
-141.241
-142.3
-143.392
-144.51
-145.646
-146.792
-147.941
-149.084
-150.214
-151.324
-152.407
-153.458
-154.471
-155.44
-156.363
-157.236
-158.056
-158.822
-159.533
-160.188
-160.787
-161.332
-161.822
-162.261
-162.65
-162.992
-163.289
-163.544
-163.762
-163.945
-164.097
-164.223
-164.326
-164.411
-164.482
-164.544
-164.601
-164.657
-164.717
-164.784
-164.861
-164.952
-165.059
-165.183
-165.325
-165.486
-165.665
-165.861
-166.071
-166.294
-166.527
-166.765
-167.006
-167.244
-167.476
-167.696
-167.901
-168.085
-168.243
-168.372
-168.466
-168.522
-168.535
-168.501
-168.417
-168.279
-168.083
-167.826
-167.505
-167.117
-166.658
-166.128
-165.523
-164.842
-164.083
-163.246
-162.331
-161.337
-160.266
-159.118
-157.895
-156.6
-155.235
-153.802
-152.303
-150.742
-149.121
-147.443
-145.711
-143.925
-142.088
-140.202
-138.268
-136.286
-134.258
-132.184
-130.064
-127.897
-125.685
-123.426
-121.121
-118.77
-116.372
-113.928
-111.438
-108.902
-106.321
-103.695
-101.026
-98.313
-95.559
-92.766
-89.934
-87.066
-84.164
-81.233
-78.275
-75.294
-72.297
-69.289
-66.279
-63.275
-60.288
-57.328
-54.408
-51.537
-48.73
-45.998
-43.351
-40.802
-38.362
-36.042
-33.856
-31.819
-29.942
-28.236
-26.711
-25.376
-24.24
-23.309
-22.582
-22.061
-21.746
-21.644
-21.764
-22.115
-22.697
-23.508
-24.542
-25.787
-27.229
-28.846
-30.599
-32.457
-34.386
-36.355
-38.347
-40.338
-42.291
-44.167
-45.912
-47.476
-48.834
-49.959
-50.822
-51.426
-51.785
-51.935
-51.945
-51.865
-51.738
-51.624
-51.578
-51.673
-51.995
-52.599
-53.577
-55.068
-57.099
-59.631
-62.534
-65.473
-68.15
-70.363
-71.777
-72.028
-70.976
-68.608
-65.284
-61.812
-58.836
-56.749
-55.96
-56.83
-59.41
-63.423
-67.989
-71.304
-71.469
-67.217
-56.144
-35.681
-5.225
36.612
86.417
137.192
188.292
238.322
292.047
360.507
439.742
521.217
589.452
617.736
596.907
527.928
417.38
288.192
157.247
35.876
-61.707
-131.004
-171.375
-182.162
-171.198
-149.825
-127.693
-116.419
-122.845
-144.986
-177.688
-211.604
-238.329
-255.79
-265.296
-270.815
-275.449
-279.54
-282.046
-281.122
-275.987
-266.645
-254.159
-240.964
-227.52
-212.968
-195.145
-169.046
-135.208
-99.585
-68.163
-49.492
-44.614
-45.69
-46.836
-41.952
-29.556
-15.1
-1.708
9.067
16.516
22.424
27.628
31.864
35.189
37.463
38.564
38.591
37.705
36.162
34.279
32.384
30.672
29.206
28.061
27.316
27.025
27.207
27.84
28.864
30.235
31.949
34.005
36.387
39.066
41.993
45.091
48.287
51.506
54.653
57.655
60.469
63.059
65.416
67.55
69.471
71.199
72.766
74.191
75.497
76.704
77.83
78.903
79.954
81.019
82.138
83.344
84.655
86.086
87.64
89.315
91.108
93.008
94.996
97.057
99.178
101.349
103.562
105.808
108.074
110.346
112.612
114.859
117.077
119.256
121.385
123.456
125.46
127.393
129.249
131.024
132.71
134.302
135.791
137.172
138.439
139.586
140.607
141.496
142.251
142.866
143.341
143.674
143.864
143.909
143.81
143.568
143.183
142.658
141.992
141.188
140.248
139.173
137.965
136.628
135.163
133.574
131.864
130.038
128.098
126.05
123.898
121.648
119.303
116.871
114.357
111.768
109.11
106.391
103.617
100.797
97.938
95.047
92.132
89.2
86.258
83.314
80.373
77.443
74.53
71.641
68.782
65.96
63.182
60.453
57.779
55.166
52.619
50.144
47.744
45.424
43.186
41.034
38.97
36.996
35.113
33.322
31.623
30.015
28.498
27.069
25.727
24.469
23.291
22.192
21.168
20.214
19.329
18.509
17.75
17.049
16.403
15.809
15.262
14.76
14.298
13.875
13.485
13.127
12.798
12.495
12.216
11.959
11.723
11.506
11.307
11.126
10.962
10.816
10.687
10.576
10.485
10.414
10.366
10.341
10.342
10.369
10.425
10.509
10.622
10.766
10.939
11.141
11.373
11.633
11.92
12.233
12.572
12.933
13.316
13.718
14.136
14.568
15.011
15.46
15.914
16.367
16.817
17.259
17.688
18.102
18.495
18.863
19.2
19.503
19.766
19.986
20.158
20.279
20.345
20.354
20.304
20.194
20.023
19.79
19.497
19.142
18.728
18.256
17.728
17.147
16.516
15.837
15.115
14.353
13.556
12.727
11.872
10.996
10.102
9.196
8.283
7.369
6.458
5.557
4.669
3.802
2.959
2.146
1.367
0.626
-0.073
-0.727
-1.333
-1.89
-2.395
-2.848
-3.247
-3.594
-3.887
-4.127
-4.316
-4.455
-4.544
-4.585
-4.581
-4.532
-4.441
-4.31
-4.14
-3.935
-3.695
-3.422
-3.12
-2.789
-2.433
-2.052
-1.65
-1.228
-0.788
-0.332
0.138
0.622
1.117
1.622
2.136
2.659
3.189
3.727
4.272
4.824
5.382
5.946
6.516
7.092
7.672
8.256
8.843
9.43
10.017
10.601
11.181
11.752
12.314
12.864
13.397
13.912
14.405
14.873
15.313
15.721
16.095
16.432
16.73
16.985
17.197
17.364
17.484
17.557
17.582
17.558
17.486
17.367
17.202
16.991
16.738
16.446
16.117
15.757
15.37
14.962
14.54
14.112
13.683
13.263
12.86
12.482
12.14
11.841
11.595
11.412
11.301
11.269
11.327
11.481
11.739
12.107
12.591
13.193
13.919
14.769
15.745
16.846
18.072
19.419
20.885
22.465
24.153
25.943
27.826
29.792
31.829
33.925
36.062
38.226
40.398
42.561
44.697
46.786
48.81
50.751
52.595
54.325
55.924
57.374
58.661
59.77
60.69
61.41
61.919
62.21
62.28
62.126
61.752
61.159
60.344
59.303
58.028
56.518
54.778
52.816
50.637
48.257
45.694
42.977
40.155
37.267
34.348
31.439
28.567
25.779
23.134
20.681
18.477
16.571
14.986
13.747
12.878
12.385
12.261
12.473
12.931
13.547
14.236
14.912
15.516
15.932
15.993
15.616
14.781
13.582
12.261
11.005
9.923
9.256
9.272
10.122
11.897
14.271
16.523
18.089
18.483
17.201
14.027
9.004
2.12
-5.876
-13.274
-18.691
-19.411
-11.177
7.356
36.411
73.62
110.044
142.762
175.831
216.074
279.232
370.927
478.648
582.54
653.082
669.293
631.807
552.917
452.312
345.724
238.41
130.432
25.26
-64.913
-126.643
-150.018
-137.975
-109.916
-87.286
-86.26
-110.987
-150.498
-189.83
-218.271
-232.175
-236.084
-237.413
-240.169
-244.931
-249.7
-251.396
-248.85
-242.304
-232.272
-219.498
-204.418
-187.013
-167.275
-145.612
-122.568
-98.772
-74.997
-51.869
-29.989
-10.469
5.322
16.77
23.763
26.535
25.659
21.403
14.115
4.982
-4.334
-12.728
-19.556
-24.553
-27.689
-28.495
-26.632
-22.566
-17.287
-11.548
-5.816
-0.284
4.958
9.426
12.702
14.901
16.488
17.852
19.206
20.562
21.839
23.186
24.747
26.438
28.041
29.341
30.216
30.671
30.78
30.558
30.006
29.17
28.126
26.972
25.786
24.614
23.484
22.421
21.452
20.611
19.926
19.416
19.098
18.983
19.075
19.384
19.916
20.676
21.671
22.902
24.366
26.06
27.979
30.116
32.465
35.019
37.762
40.683
43.768
47.005
50.383
53.888
57.502
61.208
64.987
68.818
72.684
76.563
80.435
84.28
88.078
91.811
95.462
99.013
102.448
105.75
108.904
111.893
114.704
117.325
119.743
121.946
123.927
125.678
127.191
128.463
129.489
130.267
130.794
131.07
131.096
130.873
130.405
129.693
128.744
127.562
126.154
124.526
122.685
120.639
118.395
115.963
113.35
110.565
107.616
104.514
101.268
97.887
94.38
90.759
87.034
83.213
79.307
75.326
71.279
67.176
63.025
58.835
54.616
50.374
46.119
41.858
37.598
33.347
29.112
24.9
20.717
16.569
12.462
8.403
4.398
0.452
-3.429
-7.239
-10.973
-14.625
-18.191
-21.665
-25.043
-28.321
-31.494
-34.561
-37.516
-40.358
-43.083
-45.69
-48.176
-50.539
-52.778
-54.892
-56.878
-58.736
-60.466
-62.066
-63.537
-64.878
-66.089
-67.17
-68.123
-68.948
-69.646
-70.219
-70.669
-70.999
-71.21
-71.307
-71.293
-71.172
-70.948
-70.626
-70.21
-69.705
-69.116
-68.447
-67.705
-66.893
-66.017
-65.082
-64.093
-63.056
-61.975
-60.856
-59.705
-58.527
-57.328
-56.112
-54.885
-53.654
-52.423
-51.198
-49.985
-48.789
-47.616
-46.47
-45.356
-44.279
-43.243
-42.252
-41.309
-40.417
-39.579
-38.797
-38.073
-37.41
-36.808
-36.269
-35.796
-35.387
-35.046
-34.771
-34.564
-34.425
-34.353
-34.349
-34.413
-34.542
-34.737
-34.997
-35.319
-35.702
-36.144
-36.642
-37.194
-37.796
-38.445
-39.138
-39.872
-40.642
-41.446
-42.28
-43.141
-44.025
-44.93
-45.853
-46.79
-47.739
-48.695
-49.658
-50.622
-51.587
-52.547
-53.502
-54.447
-55.38
-56.298
-57.197
-58.076
-58.931
-59.759
-60.558
-61.326
-62.061
-62.761
-63.425
-64.051
-64.64
-65.191
-65.703
-66.177
-66.613
-67.01
-67.371
-67.694
-67.98
-68.231
-68.447
-68.629
-68.778
-68.896
-68.983
-69.041
-69.073
-69.079
-69.063
-69.027
-68.973
-68.907
-68.831
-68.75
-68.669
-68.591
-68.521
-68.463
-68.421
-68.4
-68.403
-68.433
-68.493
-68.587
-68.718
-68.89
-69.104
-69.363
-69.669
-70.024
-70.429
-70.886
-71.395
-71.957
-72.573
-73.243
-73.968
-74.747
-75.578
-76.46
-77.391
-78.366
-79.382
-80.431
-81.507
-82.6
-83.703
-84.808
-85.907
-86.991
-88.051
-89.08
-90.073
-91.023
-91.921
-92.758
-93.522
-94.202
-94.789
-95.27
-95.635
-95.871
-95.969
-95.922
-95.728
-95.382
-94.878
-94.206
-93.353
-92.312
-91.085
-89.672
-88.076
-86.307
-84.382
-82.328
-80.189
-77.997
-75.77
-73.523
-71.256
-68.972
-66.678
-64.377
-62.071
-59.761
-57.44
-55.111
-52.785
-50.454
-48.097
-45.672
-43.107
-40.363
-37.43
-34.315
-31.046
-27.665
-24.216
-20.768
-17.41
-14.214
-11.245
-8.556
-6.174
-4.156
-2.572
-1.503
-1.061
-1.324
-2.321
-4.068
-6.543
-9.679
-13.402
-17.6
-22.123
-26.856
-31.698
-36.55
-41.343
-45.988
-50.39
-54.472
-58.133
-61.273
-63.841
-65.805
-67.185
-68.082
-68.595
-68.823
-68.893
-68.883
-68.881
-68.993
-69.283
-69.803
-70.584
-71.605
-72.933
-74.72
-76.97
-79.6
-82.367
-84.776
-86.424
-87.011
-86.046
-83.073
-77.989
-70.751
-61.735
-52.069
-42.757
-34.849
-29.844
-27.583
-26.223
-24.807
-21.46
-16.608
-14.615
-14.877
-14.589
-7.879
17.568
66.754
139.169
232.71
336.726
441.226
537.031
607.177
636.824
616.465
540.592
419.936
276.453
131.637
9.096
-77.359
-129.584
-154.089
-164.74
-176.316
-192.701
-213.918
-236.374
-253.637
-265.435
-274.123
-281.688
-290.966
-302.317
-314.052
-324.829
-333.194
-337.668
-337.705
-333.234
-324.269
-311.325
-295.134
-276.322
-255.68
-234.115
-212.267
-190.623
-169.576
-149.311
-130.004
-111.899
-95.192
-80.053
-66.655
-55.095
-45.427
-37.68
-31.797
-27.682
-25.2
-24.171
-24.4
-25.684
-27.835
-30.684
-34.073
-37.812
-41.681
-45.457
-48.924
-51.935
-54.395
-56.236
-57.428
-57.959
-57.853
-57.164
-55.969
-54.341
-52.346
-50.038
-47.468
-44.717
-41.887
-39.088
-36.436
-34.008
-31.85
-29.997
-28.468
-27.264
-26.374
-25.763
-25.384
-25.198
-25.17
-25.271
-25.476
-25.745
-26.034
-26.295
-26.474
-26.535
-26.45
-26.196
-25.761
-25.134
-24.314
-23.307
-22.127
-20.784
-19.285
-17.637
-15.842
-13.911
-11.853
-9.679
-7.403
-5.036
-2.588
-0.072
2.502
5.123
7.782
10.468
13.176
15.895
18.616
21.327
24.016
26.672
29.285
31.843
34.336
36.753
39.085
41.323
43.458
45.484
47.393
49.177
50.833
52.353
53.733
54.969
56.058
56.997
57.783
58.414
58.889
59.208
59.369
59.374
59.224
58.92
58.467
57.866
57.122
56.239
55.223
54.078
52.812
51.429
49.936
48.342
46.652
44.876
43.022
41.097
39.111
37.072
34.99
32.874
30.733
28.575
26.411
24.25
22.102
19.975
17.879
15.825
13.821
11.875
9.997
8.195
6.477
4.848
3.316
1.885
0.562
-0.65
-1.748
-2.728
-3.588
-4.326
-4.942
-5.437
-5.809
-6.062
-6.198
-6.219
-6.129
-5.932
-5.633
-5.237
-4.75
-4.177
-3.527
-2.804
-2.018
-1.174
-0.283
0.649
1.613
2.601
3.606
4.619
5.633
6.641
7.638
8.617
9.574
10.504
11.403
12.268
13.097
13.888
14.64
15.353
16.028
16.666
17.269
17.841
18.385
18.905
19.406
19.892
20.369
20.844
21.322
21.81
22.316
22.846
23.407
24.009
24.657
25.359
26.122
26.953
27.858
28.843
29.911
31.069
32.319
33.665
35.108
36.65
38.292
40.034
41.874
43.81
45.84
47.961
50.167
52.455
54.818
57.251
59.747
62.299
64.9
67.541
70.215
72.913
75.627
78.347
81.065
83.771
86.456
89.112
91.731
94.304
96.824
99.284
101.677
103.997
106.24
108.401
110.476
112.462
114.356
116.157
117.864
119.477
120.996
122.422
123.756
125.001
126.158
127.23
128.221
129.134
129.972
130.74
131.441
132.08
132.661
133.188
133.667
134.101
134.496
134.854
135.181
135.479
135.752
136.003
136.234
136.447
136.642
136.822
136.985
137.133
137.263
137.376
137.47
137.542
137.591
137.614
137.61
137.575
137.508
137.404
137.262
137.08
136.853
136.58
136.259
135.886
135.461
134.98
134.443
133.847
133.19
132.472
131.692
130.849
129.942
128.972
127.94
126.847
125.695
124.485
123.221
121.906
120.542
119.134
117.685
116.199
114.679
113.129
111.554
109.957
108.342
106.713
105.074
103.429
101.783
100.139
98.5
96.87
95.251
93.647
92.061
90.496
88.955
87.441
85.956
84.505
83.09
81.714
80.379
79.086
77.839
76.638
75.486
74.383
73.332
72.335
71.395
70.514
69.697
68.947
68.267
67.664
67.141
66.702
66.35
66.088
65.919
65.847
65.874
66.003
66.238
66.582
67.043
67.628
68.344
69.194
70.183
71.312
72.585
74.004
75.571
77.28
79.131
81.125
83.267
85.567
88.027
90.638
93.387
96.251
99.211
102.252
105.348
108.469
111.593
114.705
117.807
120.917
124.039
127.165
130.276
133.336
136.325
139.241
142.08
144.849
147.552
150.187
152.773
155.353
157.936
160.51
163.025
165.391
167.543
169.441
171.055
172.379
173.39
174.044
174.31
174.165
173.578
172.533
170.978
168.824
166.032
162.594
158.551
154.004
149.026
143.663
137.966
131.979
125.761
119.403
112.971
106.514
100.091
93.755
87.597
81.751
76.311
71.351
66.9
62.934
59.455
56.472
53.965
51.903
50.229
48.859
47.737
46.81
45.997
45.222
44.372
43.315
41.922
39.997
37.431
34.259
30.592
26.724
23.022
19.758
17.301
16.214
16.785
18.93
22.216
25.565
27.815
28.201
25.896
19.994
10.17
-3.038
-18.183
-32.622
-43.19
-47.046
-41.245
-22.418
10.975
57.276
113.753
176.47
243.987
321.271
411.165
510.194
607.206
678.979
703.684
671.641
584.178
459.633
322.979
192.832
85.274
5.419
-51.346
-87.599
-111.568
-130.211
-143.25
-155.811
-169.232
-182.861
-201.672
-223.289
-245.258
-267.33
-285.614
-301.103
-315.278
-327.217
-337.127
-343.468
-344.833
-341.484
-333.756
-322.429
-308.437
-292.406
-275.034
-256.948
-238.588
-220.316
-202.351
-184.887
-168.125
-152.217
-137.327
-123.64
-111.325
-100.538
-91.389
-83.894
-78
-73.623
-70.646
-68.931
-68.328
-68.661
-69.772
-71.531
-73.822
-76.536
-79.528
-82.617
-85.624
-88.384
-90.775
-92.726
-94.191
-95.147
-95.603
-95.586
-95.148
-94.354
-93.257
-91.892
-90.295
-88.497
-86.557
-84.556
-82.582
-80.725
-79.052
-77.601
-76.401
-75.463
-74.784
-74.344
-74.11
-74.04
-74.097
-74.255
-74.488
-74.775
-75.087
-75.387
-75.635
-75.788
-75.813
-75.687
-75.394
-74.925
-74.278
-73.455
-72.469
-71.337
-70.076
-68.697
-67.213
-65.635
-63.973
-62.244
-60.463
-58.645
-56.808
-54.963
-53.126
-51.31
-49.527
-47.787
-46.099
-44.47
-42.907
-41.417
-40.009
-38.69
-37.467
-36.345
-35.329
-34.425
-33.636
-32.964
-32.409
-31.972
-31.651
-31.445
-31.35
-31.363
-31.48
-31.697
-32.008
-32.408
-32.893
-33.457
-34.095
-34.801
-35.572
-36.402
-37.287
-38.224
-39.21
-40.241
-41.316
-42.434
-43.593
-44.794
-46.037
-47.322
-48.65
-50.023
-51.443
-52.911
-54.429
-56
-57.627
-59.313
-61.062
-62.876
-64.759
-66.714
-68.744
-70.851
-73.036
-75.301
-77.646
-80.071
-82.575
-85.155
-87.809
-90.534
-93.323
-96.17
-99.07
-102.012
-104.989
-107.989
-111.002
-114.016
-117.018
-119.996
-122.936
-125.826
-128.65
-131.395
-134.047
-136.593
-139.017
-141.306
-143.448
-145.429
-147.236
-148.859
-150.286
-151.508
-152.516
-153.303
-153.863
-154.191
-154.282
-154.137
-153.754
-153.135
-152.282
-151.202
-149.899
-148.383
-146.662
-144.749
-142.654
-140.393
-137.978
-135.426
-132.752
-129.974
-127.109
-124.175
-121.189
-118.171
-115.138
-112.109
-109.103
-106.137
-103.228
-100.393
-97.649
-95.011
-92.492
-90.107
-87.867
-85.783
-83.865
-82.12
-80.555
-79.175
-77.983
-76.98
-76.167
-75.543
-75.103
-74.845
-74.762
-74.847
-75.095
-75.494
-76.037
-76.714
-77.513
-78.424
-79.434
-80.533
-81.707
-82.946
-84.237
-85.567
-86.926
-88.301
-89.681
-91.055
-92.414
-93.747
-95.045
-96.3
-97.504
-98.65
-99.733
-100.748
-101.691
-102.558
-103.347
-104.059
-104.691
-105.244
-105.719
-106.118
-106.441
-106.691
-106.871
-106.982
-107.028
-107.011
-106.935
-106.802
-106.614
-106.376
-106.089
-105.755
-105.377
-104.956
-104.495
-103.995
-103.457
-102.883
-102.274
-101.632
-100.957
-100.25
-99.511
-98.742
-97.943
-97.112
-96.25
-95.355
-94.428
-93.466
-92.471
-91.44
-90.376
-89.277
-88.144
-86.978
-85.782
-84.555
-83.301
-82.021
-80.718
-79.395
-78.055
-76.703
-75.343
-73.979
-72.616
-71.259
-69.912
-68.58
-67.265
-65.972
-64.702
-63.458
-62.241
-61.052
-59.892
-58.761
-57.661
-56.594
-55.561
-54.563
-53.601
-52.676
-51.786
-50.929
-50.101
-49.293
-48.496
-47.704
-46.909
-46.103
-45.279
-44.428
-43.543
-42.621
-41.652
-40.63
-39.54
-38.366
-37.09
-35.71
-34.224
-32.638
-30.964
-29.214
-27.398
-25.539
-23.65
-21.734
-19.787
-17.786
-15.707
-13.542
-11.29
-8.966
-6.585
-4.143
-1.635
0.944
3.618
6.403
9.323
12.424
15.729
19.23
22.9
26.67
30.456
34.199
37.854
41.385
44.77
47.966
50.927
53.618
55.988
57.985
59.551
60.597
61.055
60.908
60.162
58.865
57.104
54.937
52.41
49.578
46.481
43.172
39.719
36.181
32.622
29.115
25.741
22.605
19.805
17.405
15.442
13.927
12.839
12.173
11.92
12.044
12.502
13.239
14.191
15.306
16.529
17.769
18.922
19.877
20.505
20.739
20.485
19.59
18.028
15.858
13.271
10.684
8.501
6.991
6.541
7.583
10.178
14.148
18.878
23.159
26.021
26.796
24.721
19.329
10.967
0.677
-9.555
-16.894
-18.69
-12.392
4.614
34.359
76.319
127.311
183.725
242.508
304.664
373.621
447.58
517.707
568.179
582.373
553.695
488.701
404.264
317.889
240.078
173.019
112.401
55.516
3.462
-41.305
-75.604
-98.86
-113.267
-121.483
-126.129
-129.651
-133.987
-140.286
-149.047
-160.059
-172.481
-185.277
-197.506
-208.071
-215.84
-220.207
-220.928
-218.021
-211.88
-203
-191.844
-179.026
-165.203
-150.805
-136.153
-121.495
-106.921
-92.55
-78.514
-64.859
-51.648
-38.999
-27.046
-15.995
-6.046
2.708
10.226
16.502
21.591
25.536
28.403
30.306
31.337
31.572
31.094
29.956
28.226
26.02
23.474
20.771
18.106
15.617
13.406
11.55
10.08
9.025
8.394
8.156
8.283
8.753
9.543
10.645
12.05
13.713
15.573
17.543
19.519
21.427
23.217
24.853
26.32
27.612
28.73
29.703
30.565
31.347
32.071
32.756
33.411
34.062
34.738
35.478
36.325
37.31
38.453
39.771
41.272
42.958
44.829
46.871
49.065
51.395
53.847
56.411
59.079
61.838
64.676
67.577
70.528
73.516
76.528
79.554
82.582
85.601
88.603
91.58
94.529
97.442
100.312
103.132
105.895
108.593
111.221
113.77
116.236
118.613
120.895
123.079
125.161
127.14
129.013
130.778
132.433
133.979
135.414
136.738
137.951
139.053
140.044
140.924
141.692
142.348
142.892
143.325
143.645
143.852
143.947
143.928
143.796
143.551
143.191
142.719
142.132
141.433
140.621
139.699
138.667
137.527
136.281
134.93
133.477
131.925
130.275
128.53
126.694
124.769
122.759
120.668
118.501
116.262
113.957
111.589
109.166
106.693
104.177
101.625
99.043
96.438
93.818
91.19
88.561
85.94
83.333
80.748
78.192
75.67
73.19
70.758
68.379
66.058
63.8
61.611
59.494
57.452
55.49
53.611
51.818
50.113
48.497
46.974
45.543
44.205
42.962
41.811
40.753
39.787
38.911
38.122
37.418
36.797
36.256
35.79
35.397
35.073
34.813
34.615
34.475
34.388
34.351
34.361
34.414
34.506
34.636
34.799
34.992
35.213
35.458
35.725
36.01
36.31
36.623
36.945
37.275
37.609
37.945
38.282
38.617
38.949
39.276
39.598
39.913
40.221
40.521
40.813
41.096
41.37
41.635
41.89
42.136
42.372
42.596
42.81
43.011
43.199
43.373
43.532
43.674
43.799
43.906
43.993
44.061
44.108
44.134
44.138
44.12
44.078
44.012
43.921
43.804
43.66
43.487
43.284
43.051
42.784
42.482
42.144
41.768
41.351
40.891
40.387
39.837
39.238
38.591
37.892
37.141
36.338
35.481
34.571
33.607
32.589
31.517
30.389
29.208
27.971
26.68
25.334
23.934
22.48
20.973
19.413
17.803
16.142
14.433
12.677
10.877
9.033
7.149
5.227
3.271
1.283
-0.733
-2.773
-4.834
-6.913
-9.004
-11.106
-13.215
-15.327
-17.439
-19.549
-21.653
-23.747
-25.829
-27.896
-29.944
-31.969
-33.968
-35.939
-37.879
-39.783
-41.651
-43.479
-45.265
-47.007
-48.701
-50.348
-51.943
-53.487
-54.976
-56.411
-57.789
-59.112
-60.379
-61.589
-62.744
-63.843
-64.887
-65.877
-66.812
-67.693
-68.521
-69.297
-70.022
-70.697
-71.325
-71.908
-72.449
-72.952
-73.418
-73.853
-74.258
-74.637
-74.994
-75.33
-75.652
-75.96
-76.261
-76.556
-76.851
-77.15
-77.457
-77.775
-78.108
-78.46
-78.834
-79.232
-79.658
-80.115
-80.605
-81.131
-81.697
-82.304
-82.955
-83.652
-84.395
-85.183
-86.014
-86.887
-87.799
-88.742
-89.713
-90.707
-91.717
-92.74
-93.769
-94.799
-95.824
-96.841
-97.843
-98.825
-99.777
-100.688
-101.548
-102.347
-103.072
-103.713
-104.256
-104.688
-104.999
-105.185
-105.236
-105.144
-104.896
-104.474
-103.868
-103.075
-102.096
-100.932
-99.588
-98.077
-96.419
-94.653
-92.811
-90.918
-88.982
-86.998
-84.97
-82.898
-80.79
-78.652
-76.474
-74.239
-71.939
-69.575
-67.143
-64.627
-61.982
-59.136
-56.03
-52.644
-48.984
-45.083
-40.973
-36.691
-32.291
-27.846
-23.462
-19.236
-15.233
-11.5
-8.084
-5.053
-2.514
-0.606
0.566
0.946
0.511
-0.732
-2.773
-5.574
-9.054
-13.079
-17.481
-22.118
-26.889
-31.716
-36.517
-41.185
-45.575
-49.53
-52.938
-55.716
-57.804
-59.168
-59.787
-59.681
-58.937
-57.68
-56.057
-54.206
-52.223
-50.205
-48.268
-46.499
-45.022
-43.996
-43.485
-43.491
-43.951
-44.615
-45.175
-45.414
-45.01
-43.53
-40.707
-36.455
-30.987
-24.975
-19.281
-14.482
-10.968
-9.532
-10.812
-14.599
-20.278
-25.58
-26.311
-20.498
-7.495
12.938
37.081
64.247
98.119
141.678
202.156
284.645
385.226
495.999
601.2
678.244
709.262
683.083
599.776
477.56
342.59
219.778
127.106
65.881
25.338
-7.346
-41.965
-80.453
-117.642
-147.335
-167.041
-177.758
-183.357
-188.804
-196.332
-206.146
-217.907
-230.364
-242.36
-253.203
-261.672
-266.413
-266.835
-262.74
-254.262
-241.989
-226.519
-208.41
-188.444
-167.469
-146.106
-124.843
-104.007
-83.77
-64.344
-45.968
-28.869
-13.246
0.722
12.884
23.135
31.419
37.736
42.154
44.795
45.817
45.412
43.786
41.121
37.602
33.415
28.755
23.867
18.991
14.346
10.141
6.529
3.617
1.486
0.171
-0.337
-0.067
0.923
2.56
4.784
7.528
10.72
14.284
18.111
22.088
26.102
30.037
33.809
37.36
40.647
43.652
46.382
48.848
51.077
53.108
54.972
56.699
58.319
59.857
61.351
62.842
64.371
65.983
67.71
69.571
71.58
73.742
76.052
78.506
81.088
83.78
86.566
89.432
92.365
95.356
98.392
101.458
104.54
107.621
110.686
113.723
116.72
119.663
122.542
125.346
128.068
130.699
133.233
135.658
137.966
140.146
142.191
144.09
145.837
147.424
148.843
150.09
151.161
152.053
152.764
153.293
153.637
153.799
153.778
153.577
153.197
152.641
151.913
151.016
149.955
148.734
147.358
145.834
144.168
142.366
140.435
138.382
136.214
133.939
131.564
129.097
126.547
123.92
121.225
118.469
115.66
112.806
109.914
106.989
104.039
101.069
98.083
95.089
92.088
89.087
86.088
83.096
80.113
77.143
74.19
71.255
68.341
65.452
62.588
59.753
56.949
54.177
51.44
48.74
46.077
43.454
40.872
38.333
35.838
33.388
30.985
28.63
26.324
24.068
21.865
19.715
17.62
15.584
13.606
11.69
9.838
8.052
6.334
4.687
3.112
1.611
0.187
-1.16
-2.429
-3.618
-4.727
-5.756
-6.705
-7.575
-8.367
-9.082
-9.723
-10.291
-10.79
-11.222
-11.591
-11.9
-12.154
-12.358
-12.516
-12.634
-12.717
-12.771
-12.804
-12.821
-12.829
-12.836
-12.849
-12.876
-12.925
-13.003
-13.117
-13.276
-13.487
-13.755
-14.089
-14.495
-14.977
-15.542
-16.195
-16.938
-17.777
-18.714
-19.751
-20.889
-22.13
-23.474
-24.92
-26.467
-28.113
-29.855
-31.691
-33.617
-35.629
-37.721
-39.889
-42.126
-44.426
-46.782
-49.187
-51.633
-54.113
-56.619
-59.142
-61.674
-64.208
-66.735
-69.246
-71.735
-74.194
-76.615
-78.99
-81.314
-83.581
-85.784
-87.918
-89.979
-91.964
-93.868
-95.689
-97.425
-99.075
-100.637
-102.112
-103.498
-104.797
-106.01
-107.139
-108.184
-109.149
-110.036
-110.849
-111.59
-112.264
-112.872
-113.421
-113.912
-114.351
-114.741
-115.086
-115.39
-115.658
-115.894
-116.102
-116.285
-116.448
-116.595
-116.727
-116.848
-116.961
-117.067
-117.169
-117.266
-117.362
-117.456
-117.549
-117.641
-117.733
-117.823
-117.913
-118.001
-118.087
-118.169
-118.248
-118.323
-118.393
-118.457
-118.517
-118.57
-118.618
-118.659
-118.695
-118.723
-118.744
-118.758
-118.764
-118.761
-118.75
-118.729
-118.699
-118.66
-118.613
-118.556
-118.49
-118.416
-118.333
-118.243
-118.146
-118.041
-117.929
-117.81
-117.684
-117.55
-117.409
-117.259
-117.098
-116.925
-116.738
-116.534
-116.309
-116.06
-115.783
-115.473
-115.127
-114.739
-114.304
-113.817
-113.273
-112.667
-111.993
-111.246
-110.42
-109.509
-108.507
-107.41
-106.211
-104.906
-103.49
-101.956
-100.301
-98.519
-96.608
-94.563
-92.381
-90.058
-87.593
-84.986
-82.236
-79.344
-76.312
-73.142
-69.839
-66.406
-62.849
-59.176
-55.392
-51.507
-47.529
-43.469
-39.336
-35.144
-30.903
-26.626
-22.328
-18.021
-13.722
-9.445
-5.205
-1.017
3.1
7.131
11.06
14.868
18.538
22.052
25.391
28.536
31.47
34.177
36.639
38.843
40.775
42.423
43.78
44.837
45.587
46.022
46.135
45.922
45.381
44.511
43.313
41.789
39.945
37.795
35.353
32.63
29.636
26.373
22.846
19.068
15.052
10.818
6.39
1.795
-2.93
-7.733
-12.565
-17.382
-22.146
-26.834
-31.418
-35.86
-40.115
-44.127
-47.85
-51.257
-54.313
-56.992
-59.302
-61.261
-62.923
-64.379
-65.679
-66.873
-68.028
-69.193
-70.445
-71.876
-73.547
-75.553
-78.052
-81.109
-84.708
-88.705
-92.706
-96.296
-99.148
-100.839
-100.903
-99.12
-95.569
-90.78
-85.914
-82.148
-80.297
-81.107
-85.257
-92.884
-103.337
-114.985
-125.02
-130.441
-128.647
-117.065
-93.198
-55.093
-3.485
58.014
125.164
193.131
261.478
334.026
408.708
480.348
537.714
561.231
542.027
478.734
375.833
252.74
125.426
7.865
-83.63
-146.415
-182.353
-197.645
-207.36
-218.991
-234.923
-254.918
-272.745
-286.5
-297.764
-307.66
-318.705
-331.336
-343.778
-354.676
-362.647
-366.387
-365.507
-360.03
-350.095
-336.302
-319.436
-300.183
-279.311
-257.651
-235.813
-214.271
-193.401
-173.4
-154.452
-136.786
-120.605
-106.077
-93.323
-82.388
-73.273
-65.952
-60.347
-56.343
-53.778
-52.46
-52.183
-52.734
-53.936
-55.631
-57.651
-59.815
-61.902
-63.693
-65.041
-65.856
-66.085
-65.709
-64.719
-63.118
-60.959
-58.316
-55.27
-51.901
-48.265
-44.406
-40.39
-36.299
-32.24
-28.331
-24.644
-21.222
-18.091
-15.263
-12.744
-10.533
-8.598
-6.893
-5.378
-4.017
-2.783
-1.66
-0.614
0.394
1.41
2.483
3.647
4.922
6.328
7.877
9.576
11.427
13.422
15.542
17.776
20.114
22.549
25.073
27.676
30.345
33.065
35.822
38.603
41.396
44.188
46.965
49.717
52.435
55.11
57.737
60.309
62.817
65.255
67.615
69.889
72.073
74.16
76.144
78.021
79.788
81.443
82.985
84.413
85.726
86.926
88.013
88.991
89.859
90.622
91.282
91.844
92.311
92.687
92.976
93.184
93.315
93.374
93.365
93.293
93.161
92.975
92.736
92.45
92.119
91.747
91.335
90.888
90.406
89.894
89.353
88.786
88.195
87.583
86.95
86.299
85.634
84.956
84.267
83.571
82.872
82.172
81.475
80.785
80.106
79.442
78.797
78.175
77.582
77.022
76.499
76.02
75.588
75.211
74.893
74.64
74.457
74.349
74.322
74.38
74.527
74.769
75.108
75.549
76.094
76.746
77.507
78.378
79.36
80.454
81.657
82.969
84.388
85.91
87.532
89.25
91.059
92.955
94.932
96.984
99.105
101.288
103.526
105.812
108.139
110.498
112.883
115.285
117.697
120.112
122.521
124.919
127.297
129.649
131.969
134.25
136.486
138.672
140.802
142.871
144.876
146.812
148.676
150.467
152.181
153.818
155.376
156.855
158.255
159.574
160.814
161.976
163.059
164.066
164.997
165.854
166.638
167.352
167.996
168.572
169.082
169.527
169.908
170.228
170.486
170.686
170.826
170.91
170.939
170.913
170.835
170.705
170.525
170.295
170.017
169.69
169.314
168.891
168.42
167.902
167.335
166.721
166.058
165.347
164.587
163.778
162.921
162.013
161.056
160.049
158.992
157.884
156.727
155.52
154.265
152.961
151.609
150.211
148.766
147.276
145.74
144.159
142.534
140.865
139.153
137.398
135.602
133.765
131.889
129.977
128.029
126.048
124.037
121.998
119.934
117.847
115.742
113.623
111.493
109.357
107.219
105.086
102.962
100.852
98.762
96.696
94.659
92.657
90.693
88.773
86.903
85.086
83.328
81.635
80.012
78.464
76.997
75.614
74.32
73.118
72.011
71.001
70.09
69.279
68.568
67.957
67.445
67.031
66.713
66.485
66.344
66.284
66.299
66.381
66.523
66.716
66.952
67.224
67.522
67.84
68.169
68.502
68.83
69.146
69.441
69.706
69.93
70.104
70.218
70.263
70.229
70.111
69.901
69.597
69.196
68.701
68.11
67.425
66.645
65.771
64.806
63.754
62.615
61.393
60.097
58.735
57.328
55.893
54.434
52.956
51.457
49.926
48.357
46.746
45.078
43.347
41.558
39.724
37.876
36.05
34.264
32.525
30.827
29.163
27.544
25.986
24.509
23.145
21.926
20.888
20.092
19.578
19.348
19.382
19.615
19.965
20.378
20.813
21.242
21.646
21.984
22.222
22.333
22.27
21.976
21.379
20.371
18.875
16.869
14.361
11.417
8.139
4.601
0.886
-2.931
-6.793
-10.638
-14.42
-18.107
-21.644
-24.959
-27.954
-30.511
-32.549
-34.027
-34.925
-35.292
-35.214
-34.788
-34.143
-33.374
-32.556
-31.773
-31.093
-30.588
-30.361
-30.477
-31.033
-32.203
-34.033
-36.473
-39.4
-42.42
-45.094
-47.142
-48.178
-47.733
-45.669
-42.098
-37.391
-32.563
-28.662
-26.181
-25.552
-27.411
-31.871
-38.2
-45.328
-50.314
-48.637
-38.362
-18.535
11.117
45.66
82.797
125.497
175.343
240.295
327.509
429.823
536.629
629.306
682.645
687.18
642.126
554.571
445.305
330.047
220.551
128.841
59.58
15.508
-2.788
-1.304
9.028
17.026
14.606
-2.431
-29.436
-58.219
-83.84
-101.769
-113.036
-122.692
-132.39
-143.157
-154.234
-162.485
-166.777
-167.074
-163.415
-156.631
-147.365
-135.973
-123.113
-109.383
-95.13
-80.666
-66.249
-52.098
-38.436
-25.429
-13.171
-1.766
8.614
17.777
25.58
31.952
36.897
40.475
42.748
43.785
43.691
42.605
40.7
38.133
35.023
31.472
27.597
23.545
19.508
15.666
12.136
9
6.307
4.09
2.383
1.191
0.484
0.208
0.294
0.689
1.363
2.275
3.368
4.56
5.74
6.819
7.745
8.478
8.994
9.274
9.3
9.075
8.626
7.988
7.191
6.257
5.201
4.044
2.818
1.564
0.327
-0.857
-1.97
-2.993
-3.914
-4.727
-5.424
-6.01
-6.501
-6.909
-7.242
-7.508
-7.711
-7.86
-7.965
-8.038
-8.093
-8.138
-8.182
-8.235
-8.306
-8.402
-8.53
-8.695
-8.898
-9.143
-9.437
-9.781
-10.183
-10.645
-11.171
-11.765
-12.429
-13.166
-13.976
-14.86
-15.816
-16.844
-17.941
-19.106
-20.336
-21.627
-22.977
-24.384
-25.843
-27.352
-28.906
-30.502
-32.138
-33.809
-35.512
-37.245
-39.004
-40.785
-42.588
-44.409
-46.246
-48.099
-49.966
-51.846
-53.739
-55.644
-57.563
-59.495
-61.441
-63.403
-65.382
-67.379
-69.398
-71.44
-73.509
-75.606
-77.734
-79.895
-82.092
-84.325
-86.596
-88.906
-91.255
-93.643
-96.071
-98.537
-101.04
-103.579
-106.153
-108.76
-111.395
-114.057
-116.741
-119.443
-122.158
-124.88
-127.604
-130.324
-133.033
-135.723
-138.387
-141.018
-143.606
-146.143
-148.621
-151.029
-153.359
-155.602
-157.748
-159.789
-161.717
-163.524
-165.202
-166.744
-168.145
-169.397
-170.497
-171.438
-172.218
-172.831
-173.276
-173.55
-173.651
-173.58
-173.336
-172.92
-172.335
-171.583
-170.667
-169.592
-168.364
-166.987
-165.47
-163.82
-162.047
-160.159
-158.167
-156.082
-153.916
-151.681
-149.388
-147.051
-144.681
-142.291
-139.893
-137.5
-135.123
-132.774
-130.465
-128.206
-126.009
-123.884
-121.841
-119.889
-118.036
-116.291
-114.66
-113.151
-111.768
-110.517
-109.401
-108.424
-107.588
-106.894
-106.342
-105.931
-105.658
-105.522
-105.516
-105.638
-105.88
-106.237
-106.701
-107.265
-107.921
-108.661
-109.476
-110.358
-111.297
-112.285
-113.311
-114.368
-115.447
-116.537
-117.63
-118.719
-119.793
-120.846
-121.869
-122.855
-123.796
-124.687
-125.521
-126.292
-126.995
-127.626
-128.181
-128.658
-129.053
-129.365
-129.594
-129.739
-129.799
-129.776
-129.67
-129.483
-129.218
-128.876
-128.459
-127.97
-127.413
-126.79
-126.104
-125.36
-124.559
-123.706
-122.803
-121.856
-120.866
-119.837
-118.773
-117.676
-116.551
-115.399
-114.225
-113.03
-111.817
-110.588
-109.346
-108.093
-106.83
-105.558
-104.28
-102.995
-101.705
-100.411
-99.113
-97.812
-96.508
-95.202
-93.892
-92.581
-91.266
-89.95
-88.63
-87.308
-85.983
-84.655
-83.323
-81.989
-80.651
-79.312
-77.97
-76.629
-75.288
-73.949
-72.614
-71.285
-69.963
-68.65
-67.349
-66.061
-64.788
-63.534
-62.3
-61.09
-59.905
-58.75
-57.625
-56.536
-55.483
-54.471
-53.503
-52.581
-51.709
-50.891
-50.128
-49.426
-48.787
-48.214
-47.71
-47.276
-46.914
-46.625
-46.408
-46.26
-46.179
-46.163
-46.209
-46.311
-46.467
-46.673
-46.923
-47.216
-47.546
-47.908
-48.294
-48.697
-49.108
-49.516
-49.912
-50.282
-50.615
-50.897
-51.115
-51.258
-51.313
-51.267
-51.104
-50.802
-50.346
-49.727
-48.937
-47.973
-46.834
-45.527
-44.062
-42.461
-40.744
-38.928
-37.027
-35.047
-32.992
-30.865
-28.671
-26.419
-24.106
-21.715
-19.225
-16.609
-13.833
-10.867
-7.665
-4.168
-0.327
3.894
8.517
13.541
18.952
24.719
30.804
37.159
43.71
50.363
57.004
63.504
69.74
75.601
80.959
85.675
89.623
92.689
94.787
95.871
95.913
94.906
92.87
89.846
85.917
81.206
75.856
70.031
63.882
57.531
51.116
44.787
38.687
32.955
27.704
23.004
18.908
15.469
12.701
10.58
9.032
7.926
7.119
6.499
5.963
5.413
4.745
3.829
2.541
0.789
-1.532
-4.565
-8.371
-12.921
-18.035
-23.282
-28.183
-32.323
-35.212
-36.301
-35.32
-32.346
-27.876
-23.043
-19.022
-16.636
-16.745
-20.215
-27.265
-37.206
-48.5
-58.474
-64.021
-62.477
-50.995
-26.337
12.463
63.386
124.023
190.68
262.897
345.18
436.669
530.858
614.153
665.799
673.509
636.03
560.331
461.238
351.156
237.736
129.271
34.177
-41.444
-93.749
-125.819
-147.985
-167.523
-187.934
-208.766
-224.671
-233.899
-238.405
-240.744
-244.219
-249.874
-256.641
-263.469
-269.366
-273.393
-274.749
-272.593
-266.426
-256.361
-242.906
-226.713
-208.416
-188.618
-167.987
-147.235
-126.887
-107.237
-88.457
-70.625
-53.844
-38.307
-24.156
-11.481
-0.392
9.058
16.864
23.023
27.614
30.761
32.599
33.295
32.994
31.805
29.856
27.27
24.184
20.796
17.294
13.854
10.674
7.896
5.616
3.916
2.819
2.317
2.396
3.016
4.136
5.736
7.777
10.222
13.026
16.108
19.381
22.753
26.111
29.37
32.478
35.39
38.093
40.594
42.896
45.023
47.005
48.862
50.614
52.281
53.875
55.419
56.943
58.478
60.065
61.73
63.484
65.333
67.273
69.291
71.371
73.491
75.619
77.728
79.795
81.796
83.713
85.525
87.209
88.741
90.097
91.255
92.198
92.907
93.367
93.565
93.488
93.129
92.483
91.545
90.309
88.772
86.93
84.783
82.331
79.578
76.527
73.184
69.559
65.662
61.505
57.105
52.475
47.633
42.597
37.387
32.024
26.528
20.921
15.224
9.46
3.65
-2.183
-8.018
-13.833
-19.608
-25.322
-30.956
-36.49
-41.907
-47.19
-52.323
-57.291
-62.079
-66.676
-71.069
-75.25
-79.208
-82.938
-86.431
-89.685
-92.695
-95.461
-97.981
-100.257
-102.289
-104.082
-105.639
-106.965
-108.065
-108.946
-109.615
-110.078
-110.344
-110.42
-110.314
-110.034
-109.589
-108.987
-108.237
-107.346
-106.324
-105.177
-103.915
-102.544
-101.072
-99.507
-97.854
-96.12
-94.312
-92.435
-90.494
-88.494
-86.441
-84.338
-82.19
-79.999
-77.77
-75.505
-73.208
-70.881
-68.526
-66.147
-63.745
-61.323
-58.884
-56.43
-53.965
-51.491
-49.011
-46.528
-44.044
-41.565
-39.091
-36.627
-34.177
-31.744
-29.331
-26.943
-24.583
-22.256
-19.965
-17.715
-15.509
-13.351
-11.245
-9.194
-7.203
-5.274
-3.41
-1.616
0.107
1.756
3.328
4.823
6.237
7.571
8.824
9.995
11.086
12.097
13.03
13.885
14.664
15.371
16.006
16.575
17.078
17.521
17.908
18.241
18.527
18.769
18.972
19.142
19.282
19.398
19.496
19.578
19.652
19.722
19.792
19.867
19.953
20.053
20.172
20.314
20.481
20.678
20.907
21.17
21.471
21.809
22.188
22.609
23.072
23.578
24.128
24.722
25.36
26.043
26.768
27.538
28.349
29.203
30.098
31.033
32.008
33.022
34.074
35.163
36.289
37.451
38.648
39.88
41.145
42.442
43.773
45.135
46.529
47.954
49.412
50.901
52.423
53.978
55.566
57.188
58.844
60.536
62.262
64.025
65.824
67.66
69.533
71.444
73.391
75.375
77.395
79.45
81.539
83.661
85.813
87.994
90.201
92.433
94.687
96.96
99.249
101.551
103.863
106.182
108.505
110.826
113.143
115.452
117.749
120.03
122.291
124.527
126.736
128.914
131.056
133.159
135.22
137.236
139.203
141.119
142.982
144.791
146.542
148.237
149.873
151.451
152.971
154.434
155.84
157.191
158.488
159.733
160.928
162.075
163.175
164.233
165.249
166.227
167.17
168.08
168.958
169.808
170.63
171.428
172.201
172.952
173.681
174.388
175.074
175.738
176.379
176.997
177.588
178.151
178.682
179.177
179.632
180.041
180.398
180.697
180.93
181.091
181.17
181.159
181.049
180.83
180.493
180.026
179.419
178.66
177.736
176.636
175.35
173.866
172.175
170.268
168.137
165.778
163.186
160.358
157.289
153.976
150.417
146.611
142.559
138.263
133.725
128.953
123.96
118.757
113.361
107.781
102.022
96.094
90.01
83.783
77.432
70.978
64.45
57.888
51.343
44.864
38.503
32.299
26.283
20.491
14.96
9.736
4.873
0.409
-3.627
-7.202
-10.286
-12.879
-15.004
-16.721
-18.131
-19.31
-20.309
-21.194
-22.027
-22.879
-23.85
-25.031
-26.468
-28.25
-30.512
-33.284
-36.538
-40.084
-43.466
-46.228
-48.044
-48.47
-47.037
-43.662
-38.427
-31.848
-25.165
-19.422
-15.191
-13.259
-14.398
-18.321
-24.276
-30.996
-34.527
-31.235
-20
2.147
34.417
72.254
117
168.022
227.284
304.228
398.203
501.522
600.636
670.867
693.589
664.005
585.804
473.378
347.043
220.358
105.67
15.326
-48.792
-86.789
-103.695
-113.297
-122.169
-133.222
-147.146
-158.264
-165.469
-170.854
-175.656
-182.739
-192.847
-204.249
-215.556
-225.185
-231.422
-233.591
-231.558
-225.308
-215.348
-202.413
-187.158
-170.368
-152.964
-135.59
-118.652
-102.457
-87.101
-72.674
-59.357
-47.286
-36.567
-27.288
-19.481
-13.15
-8.303
-4.891
-2.807
-1.912
-2.015
-2.908
-4.429
-6.441
-8.811
-11.409
-14.07
-16.592
-18.803
-20.586
-21.862
-22.586
-22.729
-22.267
-21.211
-19.611
-17.545
-15.101
-12.345
-9.32
-6.078
-2.684
0.774
4.179
7.441
10.508
13.339
15.909
18.2
20.194
21.896
23.338
24.556
25.585
26.453
27.176
27.777
28.293
28.765
29.242
29.761
30.342
31.004
31.76
32.62
33.593
34.675
35.853
37.117
38.457
39.869
41.348
42.887
44.475
46.098
47.744
49.405
51.071
52.733
54.382
56.008
57.606
59.168
60.691
62.169
63.596
64.964
66.265
67.494
68.644
69.708
70.682
71.558
72.335
73.007
73.574
74.034
74.384
74.625
74.755
74.777
74.69
74.497
74.2
73.801
73.303
72.709
72.022
71.245
70.38
69.431
68.4
67.291
66.106
64.847
63.519
62.122
60.66
59.135
57.549
55.904
54.202
52.446
50.637
48.776
46.867
44.91
42.906
40.858
38.766
36.632
34.457
32.242
29.989
27.699
25.372
23.011
20.618
18.193
15.741
13.262
10.76
8.237
5.699
3.147
0.586
-1.98
-4.547
-7.109
-9.663
-12.202
-14.722
-17.217
-19.683
-22.113
-24.504
-26.849
-29.144
-31.384
-33.565
-35.683
-37.732
-39.71
-41.613
-43.437
-45.178
-46.833
-48.399
-49.874
-51.255
-52.54
-53.727
-54.815
-55.802
-56.688
-57.473
-58.156
-58.738
-59.219
-59.601
-59.884
-60.071
-60.163
-60.163
-60.074
-59.897
-59.636
-59.294
-58.875
-58.381
-57.815
-57.182
-56.484
-55.726
-54.911
-54.042
-53.125
-52.162
-51.16
-50.122
-49.053
-47.959
-46.845
-45.716
-44.578
-43.436
-42.296
-41.164
-40.046
-38.947
-37.874
-36.832
-35.827
-34.865
-33.951
-33.091
-32.29
-31.553
-30.884
-30.29
-29.773
-29.339
-28.991
-28.733
-28.57
-28.504
-28.537
-28.673
-28.912
-29.255
-29.704
-30.257
-30.914
-31.673
-32.531
-33.486
-34.533
-35.669
-36.888
-38.185
-39.553
-40.986
-42.476
-44.016
-45.596
-47.21
-48.848
-50.501
-52.161
-53.819
-55.465
-57.09
-58.685
-60.241
-61.749
-63.201
-64.587
-65.9
-67.131
-68.275
-69.323
-70.272
-71.114
-71.847
-72.466
-72.97
-73.356
-73.624
-73.774
-73.807
-73.724
-73.529
-73.225
-72.817
-72.311
-71.711
-71.025
-70.26
-69.423
-68.523
-67.566
-66.562
-65.52
-64.449
-63.357
-62.254
-61.15
-60.053
-58.974
-57.92
-56.9
-55.923
-54.996
-54.127
-53.322
-52.587
-51.928
-51.349
-50.854
-50.446
-50.127
-49.898
-49.76
-49.713
-49.755
-49.885
-50.1
-50.396
-50.771
-51.218
-51.735
-52.316
-52.956
-53.648
-54.387
-55.167
-55.981
-56.823
-57.687
-58.566
-59.453
-60.343
-61.228
-62.103
-62.962
-63.799
-64.61
-65.39
-66.135
-66.841
-67.505
-68.126
-68.701
-69.229
-69.71
-70.144
-70.532
-70.875
-71.176
-71.437
-71.66
-71.85
-72.01
-72.143
-72.254
-72.347
-72.427
-72.497
-72.562
-72.627
-72.696
-72.774
-72.865
-72.975
-73.107
-73.268
-73.46
-73.689
-73.958
-74.272
-74.633
-75.045
-75.508
-76.026
-76.599
-77.229
-77.915
-78.659
-79.46
-80.316
-81.226
-82.188
-83.201
-84.26
-85.363
-86.506
-87.686
-88.901
-90.147
-91.421
-92.721
-94.043
-95.385
-96.744
-98.118
-99.502
-100.894
-102.29
-103.686
-105.08
-106.469
-107.852
-109.227
-110.598
-111.963
-113.327
-114.688
-116.051
-117.415
-118.783
-120.153
-121.524
-122.895
-124.267
-125.643
-127.022
-128.406
-129.795
-131.187
-132.583
-133.982
-135.379
-136.768
-138.142
-139.499
-140.839
-142.172
-143.51
-144.863
-146.23
-147.613
-149.013
-150.427
-151.847
-153.253
-154.606
-155.876
-157.035
-158.061
-158.936
-159.623
-160.08
-160.255
-160.097
-159.577
-158.683
-157.402
-155.726
-153.658
-151.201
-148.412
-145.4
-142.272
-139.14
-136.107
-133.255
-130.724
-128.743
-127.453
-126.858
-126.826
-127.022
-127.145
-127.05
-126.485
-125.04
-122.523
-119.033
-115.067
-111.73
-110.034
-110.506
-113.664
-119.985
-129.338
-140.868
-152.922
-162.807
-167.611
-164.85
-151.993
-126.439
-87.768
-38.315
19.279
81.599
148.977
226.513
314.112
406.314
489.334
541.88
552.398
520.616
457.568
384.62
316.219
258.094
210.142
165.963
122.969
83.185
49.008
23.309
6.25
-4.582
-11.757
-17.467
-22.963
-28.974
-35.877
-43.515
-51.385
-58.565
-63.858
-66.384
-65.742
-61.655
-54.137
-43.443
-29.572
-12.593
7.271
30.076
55.805
84.267
115.326
148.451
182.319
215.252
245.428
270.827
289.951
301.643
304.882
299.654
287.066
268.979
247.691
225.48
204.036
184.881
169.508
158.432
151.184
146.521
142.73
138.456
132.924
125.408
115.095
101.7
85.478
67.219
48.124
28.967
10.037
-8.398
-26.02
-42.593
-57.952
-72.199
-85.715
-98.661
-110.994
-122.65
-133.504
-143.516
-152.749
-161.141
-168.604
-175.083
-180.391
-184.418
-187.108
-188.318
-188.113
-186.639
-183.824
-179.67
-174.403
-168.075
-160.982
-153.58
-145.689
-137.148
-127.987
-117.93
-106.795
-94.736
-81.351
-66.058
-49.014
-30.182
-9.777
11.234
32.316
53.304
73.486
92.142
108.952
123.207
134.838
144.711
153.243
160.643
167.37
173.666
179.778
186.351
193.475
200.618
207.52
213.963
219.758
224.987
229.623
233.438
236.467
238.962
241.08
242.984
244.758
246.322
247.635
248.712
249.495
249.892
249.85
249.299
248.183
246.498
244.227
241.335
237.81
233.621
228.709
223.033
216.563
209.293
201.265
192.531
183.136
173.141
162.613
151.645
140.369
128.9
117.316
105.695
94.106
82.65
71.483
60.748
50.561
41.016
32.183
24.136
16.966
10.735
5.446
1.049
-2.552
-5.437
-7.647
-9.219
-10.208
-10.7
-10.824
-10.704
-10.457
-10.201
-10.089
-10.301
-11.019
-12.403
-14.532
-17.436
-21.129
-25.631
-30.977
-37.214
-44.364
-52.436
-61.45
-71.403
-82.26
-93.95
-106.318
-119.17
-132.318
-145.584
-158.83
-171.941
-184.777
-197.201
-209.079
-220.256
-230.574
-239.851
-247.851
-254.379
-259.304
-262.544
-264.103
-264.025
-262.337
-259.089
-254.339
-248.147
-240.612
-231.83
-221.884
-210.897
-199.022
-186.456
-173.466
-160.277
-147.055
-133.937
-121.009
-108.336
-95.999
-84.049
-72.509
-61.402
-50.737
-40.529
-30.81
-21.582
-12.818
-4.459
3.587
11.389
18.977
26.368
33.561
40.548
47.323
53.858
60.105
66.023
71.577
76.74
81.497
85.823
89.681
93.029
95.819
98.018
99.609
100.581
100.931
100.662
99.785
98.323
96.308
93.774
90.747
87.257
83.33
78.997
74.294
69.259
63.929
58.34
52.53
46.535
40.393
34.141
27.814
21.445
15.065
8.706
2.403
-3.813
-9.91
-15.857
-21.626
-27.189
-32.521
-37.599
-42.402
-46.913
-51.117
-54.999
-58.551
-61.763
-64.631
-67.151
-69.323
-71.146
-72.625
-73.764
-74.571
-75.053
-75.223
-75.09
-74.669
-73.975
-73.022
-71.83
-70.415
-68.797
-66.995
-65.03
-62.922
-60.691
-58.358
-55.948
-53.481
-50.977
-48.457
-45.935
-43.435
-40.976
-38.566
-36.212
-33.922
-31.696
-29.555
-27.525
-25.6
-23.773
-22.082
-20.557
-19.22
-18.104
-17.184
-16.411
-15.812
-15.436
-15.149
-14.792
-14.455
-14.125
-13.769
-13.716
-13.058
-10.909
-8.519
-6.264
-6.448
-11.828
-19.339
-26.938
-31.582
-29.098
-23.169
-16.919
-12.489
-13.416
-17.166
-21.172
-24.861
-26.669
-27.501
-28.527
-29.522
-30.636
-31.791
-32.748
-33.664
-34.661
-35.696
-36.759
-37.862
-38.998
-40.156
-41.329
-42.488
-43.603
-44.681
-45.725
-46.726
-47.678
-48.574
-49.405
-50.164
-50.847
-51.443
-51.943
-52.338
-52.616
-52.768
-52.786
-52.661
-52.382
-51.941
-51.33
-50.541
-49.565
-48.399
-47.036
-45.473
-43.708
-41.74
-39.571
-37.203
-34.64
-31.889
-28.955
-25.845
-22.569
-19.136
-15.555
-11.838
-7.995
-4.04
0.013
4.148
8.351
12.605
16.893
21.197
25.497
29.776
34.024
38.227
42.369
46.435
50.402
54.256
57.989
61.594
65.061
68.388
71.573
74.627
77.578
80.45
83.264
86.034
88.762
91.456
94.14
96.834
99.561
102.334
105.14
107.976
110.855
113.771
116.704
119.6
122.353
124.882
127.134
129.07
130.683
131.939
132.768
133.122
132.959
132.258
131.061
129.349
127.019
124.115
120.779
117.304
114.224
111.974
110.81
111.093
113.182
117.117
122.779
129.624
136.538
142.607
147.11
149.256
148.657
145.626
140.825
135.629
132.344
133.203
140.474
156.785
182.855
216.917
257.186
301.254
349.486
406.084
470.631
538.162
596.397
627.133
621.37
577.646
503.573
415.282
320.519
225.644
137.137
55.812
-11.182
-60.17
-95.84
-120.943
-141.209
-159.824
-173.579
-181.453
-183.809
-182.428
-181.11
-181.655
-184.093
-187.929
-192.082
-195.768
-198.173
-198.152
-195.037
-188.668
-179.285
-167.494
-153.887
-139.004
-123.544
-108.26
-93.689
-80.192
-67.96
-57.039
-47.518
-39.469
-32.874
-27.679
-23.815
-21.214
-19.808
-19.504
-20.154
-21.576
-23.584
-26.001
-28.679
-31.46
-34.174
-36.675
-38.824
-40.53
-41.752
-42.454
-42.619
-42.246
-41.348
-39.968
-38.18
-36.057
-33.67
-31.094
-28.394
-25.653
-22.973
-20.43
-18.089
-15.99
-14.145
-12.566
-11.264
-10.23
-9.448
-8.893
-8.528
-8.321
-8.251
-8.284
-8.388
-8.521
-8.634
-8.686
-8.653
-8.512
-8.252
-7.861
-7.329
-6.653
-5.841
-4.897
-3.824
-2.627
-1.302
0.147
1.715
3.393
5.175
7.054
9.026
11.087
13.232
15.459
17.764
20.146
22.606
25.142
27.753
30.435
33.186
36.001
38.879
41.818
44.815
47.867
50.974
54.135
57.348
60.614
63.932
67.3
70.717
74.182
77.694
81.251
84.853
88.498
92.184
95.908
99.668
103.461
107.281
111.125
114.986
118.857
122.731
126.602
130.461
134.3
138.112
141.887
145.616
149.29
152.9
156.437
159.889
163.247
166.502
169.644
172.666
175.56
178.318
180.936
183.41
185.737
187.915
189.94
191.809
193.522
195.076
196.47
197.703
198.773
199.684
200.44
201.051
201.524
201.87
202.1
202.227
202.264
202.223
202.114
201.947
201.732
201.482
201.214
200.949
200.702
200.482
200.292
200.134
200.005
199.895
199.781
199.63
199.413
199.115
198.729
198.261
197.706
197.062
196.326
195.494
194.581
193.602
192.567
191.483
190.366
189.248
188.185
187.255
186.511
185.967
185.618
185.447
185.455
185.637
185.953
186.316
186.597
186.687
186.516
186.058
185.238
183.906
181.931
179.263
176.007
172.331
168.269
163.644
158.227
151.978
144.871
136.759
127.263
115.866
102.398
87.281
71.25
54.83
38.449
22.635
8.17
-3.955
-13.209
-19.888
-24.814
-28.643
-31.798
-34.659
-37.763
-41.884
-47.501
-54.443
-62.068
-69.83
-77.454
-84.831
-91.863
-98.274
-103.834
-108.59
-112.82
-116.778
-120.579
-124.2
-127.541
-130.586
-133.374
-135.912
-138.169
-140.106
-141.703
-142.988
-144.027
-144.872
-145.552
-146.084
-146.472
-146.728
-146.877
-146.946
-146.96
-146.939
-146.898
-146.851
-146.81
-146.785
-146.784
-146.807
-146.852
-146.914
-146.993
-147.093
-147.217
-147.368
-147.546
-147.748
-147.97
-148.209
-148.457
-148.706
-148.947
-149.168
-149.356
-149.5
-149.586
-149.601
-149.531
-149.36
-149.073
-148.655
-148.091
-147.368
-146.472
-145.39
-144.11
-142.623
-140.919
-138.989
-136.827
-134.426
-131.781
-128.889
-125.747
-122.353
-118.706
-114.807
-110.658
-106.26
-101.618
-96.737
-91.624
-86.285
-80.732
-74.973
-69.022
-62.892
-56.599
-50.157
-43.586
-36.902
-30.126
-23.276
-16.373
-9.437
-2.487
4.454
11.369
18.236
25.037
31.752
38.363
44.852
51.202
57.394
63.414
69.246
74.874
80.286
85.468
90.408
95.096
99.52
103.672
107.544
111.132
114.431
117.44
120.159
122.59
124.736
126.601
128.193
129.519
130.586
131.402
131.978
132.325
132.458
132.388
132.131
131.699
131.105
130.368
129.504
128.532
127.471
126.335
125.146
123.928
122.707
121.512
120.365
119.273
118.246
117.296
116.428
115.651
114.958
114.327
113.738
113.173
112.619
112.07
111.503
110.879
110.162
109.308
108.303
107.167
105.912
104.551
103.097
101.549
99.958
98.43
97.06
95.94
95.127
94.601
94.408
94.652
95.357
96.507
97.921
99.205
100.152
100.762
101.021
100.941
100.536
99.715
98.739
98.244
98.418
99.018
99.502
98.967
96.637
91.98
84.135
71.941
54.845
32.901
6.785
-22.163
-52.802
-84.29
-115.561
-145.384
-172.921
-197.744
-219.92
-240.072
-258.557
-275.375
-290.638
-304.505
-317.062
-328.401
-338.459
-346.95
-353.84
-359.357
-363.715
-367.214
-370.152
-372.693
-375.071
-377.569
-380.376
-383.703
-387.786
-392.688
-398.411
-404.853
-411.648
-418.417
-424.827
-430.346
-434.389
-436.625
-436.972
-435.755
-433.894
-432.29
-431.591
-432.606
-436.122
-442.317
-450.629
-459.749
-467.374
-470.898
-467.956
-455.725
-431.053
-393.304
-344.747
-287.927
-226.701
-160.574
-83.383
4.463
97.758
182.801
234.704
239.217
191.696
96.606
-23.77
-150.701
-268.571
-360.844
-426.249
-466.861
-487.843
-503.046
-518.374
-535.742
-555.557
-572.326
-584.818
-595.04
-604.405
-615.801
-630.055
-645.633
-661.123
-674.794
-685.009
-691.09
-692.778
-690.04
-683.282
-673.075
-660.049
-644.996
-628.754
-611.929
-594.938
-578.06
-561.419
-545.139
-529.367
-514.212
-499.785
-486.249
-473.752
-462.441
-452.445
-443.818
-436.555
-430.615
-425.931
-422.422
-420.013
-418.628
-418.192
-418.62
-419.81
-421.648
-423.96
-426.523
-429.109
-431.474
-433.384
-434.653
-435.099
-434.55
-432.877
-429.966
-425.705
-420.018
-412.846
-404.14
-393.897
-382.134
-368.921
-354.393
-338.707
-322.052
-304.631
-286.632
-268.251
-249.705
-231.174
-212.816
-194.793
-177.218
-160.195
-143.824
-128.165
-113.264
-99.142
-85.783
-73.149
-61.192
-49.846
-39.037
-28.686
-18.692
-8.978
0.516
9.847
19.045
28.135
37.146
46.085
54.951
63.741
72.446
81.049
89.539
97.895
106.091
114.098
121.883
129.421
136.7
143.713
150.461
156.948
163.179
169.168
174.932
180.486
185.845
191.022
196.025
200.866
205.56
210.121
214.561
218.894
223.127
227.269
231.325
235.301
239.198
243.018
246.76
250.42
253.997
257.491
260.898
264.216
267.44
270.565
273.586
276.497
279.29
281.956
284.486
286.871
289.1
291.165
293.056
294.763
296.279
297.595
298.704
299.599
300.276
300.729
300.953
300.945
300.702
300.223
299.507
298.555
297.368
295.949
294.302
292.432
290.345
288.049
285.552
282.863
279.992
276.951
273.753
270.409
266.935
263.345
259.654
255.878
252.034
248.138
244.207
240.256
236.301
232.358
228.441
224.564
220.74
216.982
213.302
209.712
206.222
202.841
199.578
196.442
193.44
190.577
187.858
185.287
182.867
180.601
178.49
176.533
174.73
173.079
171.578
170.224
169.011
167.935
166.99
166.168
165.464
164.87
164.376
163.976
163.662
163.424
163.256
163.149
163.096
163.088
163.119
163.181
163.267
163.369
163.481
163.597
163.711
163.816
163.907
163.979
164.028
164.048
164.036
163.987
163.899
163.769
163.594
163.372
163.102
162.783
162.417
162.002
161.54
161.032
160.481
159.888
159.256
158.588
157.886
157.153
156.394
155.611
154.808
153.99
153.159
152.322
151.482
150.644
149.812
148.992
148.189
147.407
146.652
145.928
145.242
144.598
144.001
143.457
142.969
142.543
142.182
141.89
141.669
141.521
141.448
141.452
141.534
141.694
141.932
142.248
142.642
143.112
143.656
144.273
144.959
145.713
146.53
147.406
148.337
149.319
150.345
151.412
152.515
153.647
154.804
155.98
157.17
158.369
159.57
160.769
161.96
163.14
164.304
165.45
166.578
167.684
168.768
169.829
170.868
171.883
172.875
173.84
174.778
175.69
176.578
177.445
178.294
179.131
179.962
180.796
181.641
182.505
183.396
184.319
185.279
186.283
187.338
188.454
189.637
190.888
192.202
193.575
194.996
196.453
197.924
199.382
200.798
202.147
203.407
204.563
205.602
206.512
207.281
207.892
208.342
208.643
208.814
208.886
208.89
208.86
208.837
208.876
209.027
209.333
209.819
210.496
211.361
212.398
213.595
214.94
216.392
217.884
219.317
220.562
221.495
222.003
221.954
221.206
219.62
217.058
213.415
208.63
202.656
195.471
187.053
177.368
166.433
154.313
141.119
127.024
112.189
96.758
80.904
64.819
48.713
32.82
17.329
2.37
-11.94
-25.507
-38.226
-49.966
-60.651
-70.261
-78.825
-86.421
-93.106
-98.909
-103.882
-108.118
-111.746
-114.933
-117.817
-120.467
-122.943
-125.296
-127.589
-129.908
-132.309
-134.787
-137.302
-139.818
-142.333
-144.894
-147.556
-150.324
-153.163
-156.007
-158.801
-161.539
-164.236
-166.902
-169.539
-172.153
-174.764
-177.443
-180.291
-183.362
-186.662
-190.142
-193.706
-197.291
-200.874
-204.441
-207.978
-211.457
-214.825
-218.042
-221.082
-223.896
-226.42
-228.566
-230.228
-231.349
-231.936
-232.029
-231.705
-231.054
-230.15
-229.079
-227.943
-226.839
-225.836
-225.027
-224.555
-224.496
-224.866
-225.604
-226.431
-227.035
-227.221
-226.669
-224.935
-221.833
-217.45
-212.191
-207.132
-203.409
-201.638
-202.528
-207.039
-215.33
-226.676
-239.94
-251.639
-257.84
-257.138
-246.944
-226.316
-197.482
-159.56
-112.503
-56.542
13.18
98.663
195.459
295.276
380.95
431.654
437.288
394.936
310.963
205.265
93.309
-10.612
-91.578
-148.623
-182.894
-199.004
-209.949
-220.828
-232.567
-244.903
-252.261
-253.172
-250.568
-246.829
-244.889
-245.995
-249.031
-252.74
-256.031
-257.767
-256.83
-252.557
-244.67
-233.165
-218.509
-201.286
-181.992
-161.281
-139.875
-118.272
-96.837
-75.803
-55.218
-35.133
-15.629
3.246
21.434
38.828
55.287
70.661
84.804
97.616
109.063
119.157
127.936
135.475
141.858
147.157
151.431
154.727
157.079
158.555
159.243
159.247
158.719
157.815
156.696
155.533
154.458
153.554
152.886
152.475
152.327
152.459
152.886
153.618
154.67
156.041
157.715
159.674
161.865
164.226
166.685
169.154
171.566
173.882
176.074
178.139
180.08
181.889
183.559
185.078
186.439
187.646
188.708
189.642
190.474
191.232
191.958
192.698
193.492
194.369
195.344
196.415
197.592
198.894
200.353
202.024
203.936
206.084
208.455
211.012
213.709
216.492
219.281
221.976
224.485
226.728
228.641
230.188
231.307
231.918
231.928
231.212
229.686
227.31
224.056
219.922
214.933
209.126
202.586
195.44
187.792
179.73
171.327
162.625
153.694
144.62
135.5
126.447
117.552
108.876
100.479
92.408
84.688
77.324
70.289
63.513
56.951
50.581
44.39
38.386
32.567
26.918
21.43
16.091
10.893
5.833
0.905
-3.903
-8.589
-13.141
-17.533
-21.724
-25.684
-29.402
-32.869
-36.088
-39.061
-41.791
-44.288
-46.57
-48.651
-50.544
-52.258
-53.801
-55.182
-56.416
-57.519
-58.51
-59.405
-60.217
-60.958
-61.639
-62.269
-62.857
-63.405
-63.916
-64.39
-64.832
-65.244
-65.629
-65.991
-66.331
-66.651
-66.953
-67.238
-67.507
-67.759
-67.993
-68.206
-68.398
-68.566
-68.708
-68.822
-68.906
-68.958
-68.977
-68.962
-68.913
-68.828
-68.708
-68.553
-68.363
-68.14
-67.887
-67.604
-67.295
-66.963
-66.613
-66.248
-65.875
-65.497
-65.119
-64.748
-64.389
-64.046
-63.725
-63.43
-63.168
-62.943
-62.76
-62.624
-62.539
-62.511
-62.542
-62.637
-62.799
-63.03
-63.333
-63.708
-64.158
-64.682
-65.28
-65.952
-66.697
-67.512
-68.396
-69.346
-70.36
-71.432
-72.56
-73.738
-74.961
-76.224
-77.52
-78.844
-80.189
-81.55
-82.918
-84.289
-85.656
-87.012
-88.351
-89.668
-90.957
-92.212
-93.428
-94.6
-95.723
-96.794
-97.808
-98.761
-99.652
-100.478
-101.237
-101.927
-102.546
-103.095
-103.572
-103.978
-104.312
-104.575
-104.769
-104.895
-104.954
-104.951
-104.887
-104.766
-104.592
-104.369
-104.101
-103.792
-103.447
-103.07
-102.666
-102.24
-101.797
-101.342
-100.88
-100.416
-99.955
-99.502
-99.063
-98.641
-98.242
-97.87
-97.528
-97.222
-96.956
-96.732
-96.556
-96.431
-96.36
-96.346
-96.392
-96.501
-96.674
-96.913
-97.219
-97.591
-98.031
-98.537
-99.109
-99.746
-100.447
-101.208
-102.028
-102.904
-103.832
-104.809
-105.831
-106.891
-107.986
-109.11
-110.257
-111.42
-112.593
-113.769
-114.941
-116.101
-117.241
-118.353
-119.429
-120.459
-121.434
-122.346
-123.186
-123.945
-124.615
-125.186
-125.65
-126.001
-126.229
-126.327
-126.289
-126.107
-125.774
-125.285
-124.633
-123.813
-122.82
-121.65
-120.298
-118.762
-117.038
-115.125
-113.021
-110.725
-108.237
-105.558
-102.689
-99.632
-96.389
-92.964
-89.36
-85.582
-81.635
-77.525
-73.259
-68.844
-64.286
-59.594
-54.777
-49.842
-44.8
-39.66
-34.432
-29.126
-23.754
-18.328
-12.858
-7.359
-1.842
3.678
9.188
14.674
20.121
25.517
30.846
36.095
41.248
46.292
51.213
55.997
60.628
65.091
69.371
73.452
77.321
80.963
84.366
87.517
90.406
93.024
95.365
97.421
99.187
100.656
101.823
102.684
103.237
103.482
103.419
103.052
102.388
101.44
100.222
98.743
97.012
95.033
92.813
90.363
87.698
84.835
81.797
78.613
75.324
71.979
68.632
65.325
62.097
58.981
56.012
53.229
50.683
48.418
46.474
44.883
43.676
42.869
42.454
42.4
42.641
43.098
43.711
44.413
45.135
45.806
46.345
46.67
46.731
46.45
45.707
44.46
42.741
40.705
38.711
37.08
36.065
36.071
37.564
40.702
45.439
51.365
57.47
63.106
67.939
70.982
71.46
69.517
65.455
61.518
60.944
64.553
73.898
89.389
110.919
141.597
180.993
229.518
287.619
352.591
427.512
510.282
592.697
663.165
699.296
684.853
616.038
502.507
371.489
250.647
158.38
98.756
59.564
26.8
-7.661
-43.584
-71.155
-84.672
-87.262
-85.614
-91.228
-108.83
-132.84
-157.698
-176.73
-187.421
-193.981
-198.683
-202.406
-205.024
-204.169
-198.889
-189.694
-177.131
-162.122
-145.504
-127.851
-109.745
-91.732
-74.181
-57.291
-41.243
-26.226
-12.387
0.133
11.186
20.698
28.631
34.957
39.729
43.054
45.069
45.953
45.933
45.23
44.039
42.569
40.992
39.465
38.164
37.223
36.75
36.865
37.68
39.208
41.332
43.785
46.231
48.471
50.471
52.221
53.59
54.463
54.91
55.28
56
57.119
58.114
58.176
56.751
53.464
47.882
39.337
27.01
10.568
-9.461
-32.004
-56.212
-81.475
-107.24
-132.825
-157.248
-179.799
-200.415
-219.461
-237.194
-253.679
-268.855
-282.684
-295.397
-307.19
-318.015
-327.659
-335.905
-342.682
-348.073
-352.223
-355.224
-357.17
-358.201
-358.532
-358.447
-358.162
-357.812
-357.482
-357.199
-357.005
-356.949
-357.046
-357.296
-357.696
-358.224
-358.871
-359.64
-360.504
-361.421
-362.326
-363.115
-363.713
-364.076
-364.171
-363.991
-363.535
-362.796
-361.789
-360.547
-359.094
-357.455
-355.648
-353.673
-351.547
-349.293
-346.939
-344.525
-342.078
-339.61
-337.131
-334.645
-332.15
-329.641
-327.105
-324.516
-321.854
-319.101
-316.243
-313.267
-310.162
-306.909
-303.494
-299.901
-296.119
-292.136
-287.942
-283.528
-278.885
-274.01
-268.9
-263.555
-257.975
-252.161
-246.113
-239.834
-233.328
-226.598
-219.651
-212.492
-205.129
-197.57
-189.826
-181.909
-173.831
-165.605
-157.246
-148.768
-140.187
-131.52
-122.781
-113.988
-105.157
-96.302
-87.44
-78.585
-69.752
-60.954
-52.206
-43.519
-34.906
-26.379
-17.948
-9.622
-1.413
6.674
14.629
22.447
30.12
37.644
45.014
52.226
59.277
66.163
72.884
79.439
85.829
92.052
98.112
104.01
109.748
115.329
120.756
126.031
131.159
136.141
140.982
145.684
150.25
154.683
158.986
163.16
167.209
171.133
174.935
178.616
182.178
185.622
188.949
192.161
195.259
198.244
201.117
203.881
206.535
209.082
211.521
213.855
216.083
218.207
220.228
222.146
223.962
225.677
227.291
228.806
230.224
231.544
232.769
233.901
234.941
235.892
236.757
237.538
238.239
238.864
239.416
239.899
240.318
240.676
240.977
241.226
241.426
241.582
241.697
241.775
241.819
241.834
241.823
241.789
241.736
241.667
241.585
241.494
241.396
241.295
241.194
241.096
241.004
240.921
240.849
240.791
240.75
240.726
240.721
240.737
240.773
240.83
240.907
241.005
241.121
241.256
241.407
241.573
241.753
241.945
242.146
242.355
242.569
242.787
243.005
243.222
243.435
243.642
243.84
244.026
244.198
244.351
244.483
244.59
244.666
244.709
244.712
244.671
244.581
244.437
244.235
243.971
243.641
243.241
242.769
242.221
241.595
240.89
240.104
239.235
238.283
237.247
236.127
234.922
233.633
232.26
230.802
229.261
227.636
225.929
224.138
222.267
220.318
218.294
216.197
214.033
211.805
209.522
207.191
204.821
202.419
199.994
197.555
195.111
192.673
190.249
187.845
185.466
183.118
180.804
178.531
176.305
174.13
172.013
169.965
167.995
166.118
164.347
162.688
161.151
159.742
158.468
157.349
156.397
155.622
155.038
154.647
154.448
154.437
154.596
154.895
155.301
155.775
156.283
156.8
157.308
157.8
158.272
158.705
159.077
159.364
159.546
159.638
159.68
159.723
159.842
160.097
160.554
161.33
162.463
163.905
165.548
167.111
168.34
169.23
169.79
170.034
170.218
170.558
171.334
173.212
176.617
181.412
187.312
193.705
199.548
204.063
206.443
205.466
200.347
190.935
177.361
160.412
141.384
121.208
100.806
81.358
63.627
48.019
34.736
23.404
13.319
4.09
-4.609
-13.174
-21.756
-30.436
-39.239
-47.911
-56.139
-63.812
-70.915
-77.502
-83.674
-89.437
-94.911
-100.39
-106.151
-112.475
-119.449
-126.86
-134.675
-143.162
-152.272
-161.699
-170.998
-179.278
-186.121
-191.929
-196.758
-200.226
-202.439
-203.822
-205.282
-208.81
-215.721
-225.842
-239.1
-255.868
-275.98
-298.49
-321.724
-341.478
-352.504
-353.103
-342.609
-321.168
-293.754
-262.042
-222.945
-174.774
-109.689
-21.865
80.798
185.937
273.264
320.273
320.182
275.921
197.38
99.882
-6.934
-116.743
-220.543
-308.385
-372.874
-410.72
-427.669
-437.136
-448.101
-464.715
-486.035
-505.478
-520.674
-532.668
-542.875
-554.197
-567.273
-580.579
-592.759
-602.193
-607.532
-608.489
-604.939
-596.737
-584.149
-567.437
-547.314
-525.24
-502.451
-479.66
-457.58
-436.788
-417.857
-401.727
-388.663
-378.049
-369.499
-362.778
-357.626
-353.986
-351.433
-349.103
-346.616
-344.053
-341.472
-338.948
-336.324
-333.273
-329.887
-326.373
-322.785
-319.056
-314.627
-308.894
-301.685
-292.854
-282.112
-269.317
-254.19
-236.533
-216.992
-196.263
-174.687
-152.662
-130.501
-108.424
-86.996
-66.757
-47.624
-29.519
-12.535
3.269
17.67
30.461
41.733
51.655
60.202
67.403
73.324
78.009
81.648
84.461
86.593
88.156
89.273
90.053
90.63
91.199
91.903
92.843
94.097
95.693
97.641
99.944
102.581
105.494
108.612
111.85
115.116
118.36
121.552
124.667
127.679
130.547
133.229
135.709
137.983
140.056
141.929
143.606
145.093
146.421
147.63
148.762
149.865
150.964
152.074
153.209
154.376
155.58
156.824
158.102
159.401
160.715
162.037
163.367
164.7
166.029
167.34
168.623
169.863
171.051
172.179
173.236
174.216
175.112
175.921
176.64
177.268
177.802
178.237
178.57
178.794
178.906
178.899
178.77
178.514
178.127
177.606
176.952
176.162
175.238
174.18
172.99
171.668
170.218
168.641
166.939
165.116
163.177
161.125
158.966
156.705
154.351
151.908
149.385
146.79
144.129
141.412
138.647
135.843
133.008
130.154
127.288
124.423
121.567
118.731
115.925
113.158
110.441
107.782
105.188
102.668
100.229
97.878
95.621
93.464
91.413
89.472
87.645
85.937
84.35
82.887
81.549
80.336
79.249
78.288
77.45
76.736
76.142
75.666
75.305
75.054
74.909
74.866
74.92
75.066
75.297
75.609
75.997
76.456
76.981
77.566
78.209
78.904
79.648
80.436
81.266
82.133
83.035
83.968
84.931
85.92
86.934
87.971
89.029
90.109
91.209
92.329
93.468
94.627
95.805
97.003
98.221
99.461
100.723
102.008
103.316
104.649
106.006
107.388
108.794
110.223
111.673
113.143
114.631
116.135
117.652
119.178
120.712
122.249
123.786
125.32
126.847
128.363
129.864
131.346
132.805
134.237
135.637
137.003
138.33
139.614
140.852
142.039
143.173
144.248
145.261
146.21
147.089
147.898
148.632
149.289
149.868
150.367
150.784
151.119
151.37
151.538
151.621
151.618
151.529
151.353
151.089
150.736
150.292
149.757
149.128
148.403
147.579
146.655
145.626
144.49
143.242
141.88
140.399
138.796
137.067
135.209
133.217
131.088
128.819
126.407
123.849
121.142
118.283
115.27
112.101
108.774
105.29
101.646
97.845
93.888
89.776
85.512
81.102
76.549
71.861
67.043
62.105
57.055
51.904
46.662
41.342
35.957
30.52
25.046
19.549
14.044
8.546
3.071
-2.367
-7.751
-13.069
-18.304
-23.443
-28.473
-33.379
-38.15
-42.774
-47.241
-51.54
-55.664
-59.604
-63.356
-66.914
-70.276
-73.439
-76.404
-79.171
-81.743
-84.124
-86.32
-88.338
-90.186
-91.873
-93.411
-94.812
-96.089
-97.256
-98.327
-99.317
-100.241
-101.115
-101.955
-102.775
-103.589
-104.414
-105.264
-106.152
-107.092
-108.098
-109.18
-110.351
-111.621
-112.999
-114.494
-116.111
-117.858
-119.739
-121.757
-123.917
-126.219
-128.664
-131.252
-133.982
-136.852
-139.858
-142.995
-146.259
-149.641
-153.136
-156.736
-160.433
-164.22
-168.089
-172.034
-176.051
-180.135
-184.282
-188.487
-192.748
-197.059
-201.417
-205.816
-210.249
-214.71
-219.191
-223.69
-228.202
-232.723
-237.247
-241.77
-246.286
-250.79
-255.277
-259.739
-264.166
-268.551
-272.892
-277.192
-281.467
-285.727
-289.975
-294.218
-298.456
-302.688
-306.906
-311.092
-315.207
-319.214
-323.075
-326.758
-330.238
-333.479
-336.436
-339.06
-341.287
-343.068
-344.382
-345.207
-345.533
-345.37
-344.723
-343.642
-342.243
-340.649
-338.991
-337.385
-335.899
-334.656
-333.854
-333.665
-334.186
-335.354
-336.951
-338.78
-340.724
-342.543
-343.82
-344.138
-343.3
-341.623
-339.751
-338.245
-337.644
-338.67
-342.354
-349.622
-359.402
-368.506
-374.052
-374.247
-371.09
-368.79
-366.508
-358.854
-336.353
-288.345
-211.91
-111.381
5.4
127.634
244.055
344.557
417.231
450.471
440.387
387.915
299.937
192.239
78.838
-25.118
-103.424
-152.031
-172.295
-172.413
-168.891
-169.561
-176.571
-188.547
-198.18
-203.475
-206.385
-208.473
-212.6
-219.37
-226.988
-234.075
-239.289
-241.235
-239.417
-233.73
-224.138
-211.112
-195.285
-177.217
-157.651
-137.43
-117.179
-97.387
-78.435
-60.471
-43.622
-28.003
-13.641
-0.556
11.216
21.633
30.659
38.3
44.613
49.703
53.727
56.876
59.363
61.433
63.319
65.186
67.159
69.309
71.676
74.308
77.257
80.57
84.278
88.385
92.872
97.716
102.876
108.282
113.838
119.417
124.886
130.158
135.179
139.92
144.372
148.518
152.342
155.835
159.002
161.849
164.382
166.607
168.528
170.166
171.559
172.761
173.831
174.811
175.73
176.609
177.463
178.309
179.157
180.013
180.873
181.741
182.621
183.521
184.45
185.413
186.407
187.427
188.466
189.519
190.58
191.644
192.705
193.757
194.797
195.822
196.831
197.822
198.787
199.723
200.621
201.475
202.278
203.024
203.703
204.309
204.833
205.27
205.613
205.857
205.993
206.017
205.923
205.706
205.359
204.878
204.258
203.495
202.585
201.525
200.313
198.947
197.425
195.748
193.916
191.929
189.788
187.494
185.05
182.457
179.717
176.833
173.81
170.649
167.356
163.935
160.391
156.731
152.96
149.086
145.114
141.053
136.91
132.695
128.415
124.081
119.701
115.286
110.845
106.391
101.934
97.483
93.052
88.65
84.288
79.977
75.728
71.552
67.457
63.456
59.558
55.773
52.11
48.58
45.191
41.953
38.874
35.961
33.221
30.662
28.287
26.103
24.114
22.322
20.73
19.34
18.151
17.165
16.379
15.793
15.402
15.204
15.193
15.364
15.711
16.228
16.907
17.739
18.717
19.83
21.07
22.425
23.885
25.439
27.073
28.775
30.533
32.332
34.159
36.001
37.842
39.67
41.471
43.231
44.937
46.576
48.135
49.6
50.961
52.204
53.319
54.294
55.118
55.782
56.277
56.594
56.725
56.663
56.402
55.936
55.26
54.369
53.26
51.931
50.379
48.603
46.606
44.387
41.949
39.296
36.432
33.364
30.096
26.636
22.989
19.162
15.165
11.004
6.688
2.227
-2.371
-7.094
-11.932
-16.873
-21.907
-27.024
-32.212
-37.462
-42.762
-48.104
-53.478
-58.876
-64.286
-69.702
-75.112
-80.509
-85.885
-91.234
-96.548
-101.825
-107.059
-112.249
-117.395
-122.496
-127.553
-132.565
-137.53
-142.447
-147.317
-152.138
-156.906
-161.619
-166.278
-170.885
-175.443
-179.957
-184.429
-188.863
-193.263
-197.633
-201.975
-206.288
-210.563
-214.797
-218.986
-223.131
-227.238
-231.306
-235.328
-239.294
-243.195
-247.017
-250.738
-254.323
-257.722
-260.888
-263.784
-266.39
-268.696
-270.691
-272.364
-273.706
-274.713
-275.394
-275.764
-275.823
-275.564
-274.985
-274.111
-272.989
-271.699
-270.312
-268.872
-267.404
-265.923
-264.433
-262.911
-261.313
-259.556
-257.53
-255.136
-252.295
-248.948
-245.033
-240.462
-235.124
-228.889
-221.636
-213.275
-203.728
-192.912
-180.782
-167.356
-152.699
-136.952
-120.301
-102.917
-84.966
-66.618
-48.029
-29.365
-10.807
7.479
25.326
42.573
59.053
74.581
89.008
102.257
114.299
125.167
134.946
143.715
151.568
158.631
165
170.758
175.983
180.72
185.022
188.957
192.601
196.05
199.383
202.634
205.82
208.929
211.915
214.731
217.309
219.547
221.383
222.779
223.71
224.179
224.186
223.718
222.774
221.351
219.45
217.088
214.294
211.104
207.588
203.822
199.891
195.897
191.913
188.003
184.228
180.642
177.302
174.264
171.556
169.2
167.224
165.636
164.416
163.521
162.855
162.332
161.891
161.469
161.005
160.436
159.663
158.608
157.232
155.469
153.232
150.498
147.271
143.692
140.138
136.98
134.529
133.197
133.4
135.332
139.049
144.267
150.066
155.652
160.61
164.069
165.141
163.795
160.145
155.804
154.787
159.123
169.463
186.136
205.942
228.677
258.479
299.049
357.204
436.651
532.123
633.511
724.869
788.32
812.116
792.892
733.675
643.396
535.968
422.91
316.857
231.292
169.816
132.475
113.651
99.67
83.447
61.985
34.868
7.658
-17.414
-41.364
-65.13
-90.985
-119.335
-148.369
-176.199
-200.992
-221.629
-237.857
-249.636
-257.051
-260.373
-260.001
-256.569
-250.849
-243.424
-234.704
-225.007
-214.56
-203.621
-192.497
-181.415
-170.53
-159.984
-149.902
-140.443
-131.817
-124.23
-117.853
-112.782
-109.032
-106.577
-105.378
-105.364
-106.444
-108.487
-111.329
-114.819
-118.844
-123.311
-128.137
-133.204
-138.353
-143.388
-148.117
-152.404
-156.156
-159.312
-161.83
-163.688
-164.885
-165.463
-165.483
-165
-164.054
-162.67
-160.873
-158.719
-156.289
-153.688
-151.029
-148.394
-145.839
-143.408
-141.13
-139.022
-137.086
-135.301
-133.633
-132.054
-130.544
-129.091
-127.688
-126.312
-124.932
-123.512
-122.011
-120.399
-118.656
-116.768
-114.725
-112.525
-110.17
-107.672
-105.053
-102.325
-99.503
-96.595
-93.609
-90.555
-87.445
-84.292
-81.109
-77.907
-74.697
-71.489
-68.291
-65.112
-61.958
-58.832
-55.738
-52.677
-49.654
-46.674
-43.74
-40.858
-38.029
-35.259
-32.551
-29.908
-27.334
-24.83
-22.398
-20.039
-17.755
-15.548
-13.419
-11.369
-9.399
-7.511
-5.706
-3.985
-2.35
-0.802
0.656
2.024
3.299
4.479
5.561
6.543
7.421
8.193
8.855
9.403
9.834
10.144
10.328
10.384
10.308
10.097
9.749
9.261
8.631
7.857
6.939
5.876
4.668
3.315
1.818
0.181
-1.596
-3.508
-5.551
-7.722
-10.015
-12.425
-14.945
-17.57
-20.291
-23.102
-25.994
-28.958
-31.985
-35.066
-38.189
-41.346
-44.524
-47.714
-50.903
-54.083
-57.241
-60.367
-63.451
-66.483
-69.454
-72.353
-75.174
-77.908
-80.548
-83.087
-85.52
-87.843
-90.05
-92.139
-94.106
-95.949
-97.668
-99.26
-100.727
-102.069
-103.287
-104.383
-105.361
-106.223
-106.975
-107.62
-108.165
-108.616
-108.979
-109.261
-109.469
-109.611
-109.694
-109.726
-109.715
-109.669
-109.594
-109.497
-109.386
-109.266
-109.144
-109.023
-108.909
-108.806
-108.717
-108.645
-108.591
-108.559
-108.548
-108.558
-108.59
-108.641
-108.71
-108.793
-108.887
-108.987
-109.087
-109.181
-109.262
-109.323
-109.353
-109.345
-109.288
-109.172
-108.987
-108.722
-108.365
-107.906
-107.334
-106.638
-105.807
-104.833
-103.705
-102.415
-100.953
-99.311
-97.483
-95.461
-93.24
-90.813
-88.178
-85.329
-82.264
-78.982
-75.482
-71.764
-67.83
-63.682
-59.324
-54.761
-50
-45.048
-39.913
-34.605
-29.135
-23.515
-17.756
-11.873
-5.879
0.212
6.385
12.626
18.918
25.248
31.6
37.959
44.309
50.636
56.925
63.161
69.331
75.421
81.418
87.309
93.081
98.724
104.226
109.579
114.772
119.799
124.652
129.325
133.814
138.115
142.227
146.148
149.877
153.416
156.766
159.931
162.913
165.718
168.351
170.817
173.123
175.275
177.281
179.149
180.886
182.5
183.999
185.394
186.691
187.901
189.031
190.092
191.091
192.038
192.94
193.806
194.643
195.457
196.255
197.041
197.822
198.6
199.379
200.161
200.949
201.744
202.547
203.357
204.174
204.994
205.816
206.637
207.454
208.261
209.055
209.83
210.583
211.308
211.999
212.65
213.255
213.808
214.302
214.731
215.088
215.368
215.564
215.672
215.688
215.609
215.431
215.154
214.776
214.297
213.718
213.038
212.257
211.375
210.395
209.317
208.144
206.879
205.529
204.1
202.602
201.046
199.441
197.799
196.126
194.434
192.73
191.025
189.322
187.631
185.96
184.32
182.732
181.209
179.755
178.371
177.049
175.775
174.537
173.323
172.11
170.882
169.634
168.368
167.104
165.861
164.644
163.447
162.251
161.034
159.793
158.531
157.251
155.973
154.717
153.504
152.382
151.377
150.478
149.655
148.836
147.931
146.881
145.639
144.172
142.46
140.469
138.159
135.504
132.45
128.935
124.892
120.224
114.856
108.775
101.998
94.598
86.693
78.378
69.739
60.858
51.792
42.596
33.337
24.064
14.847
5.781
-3.037
-11.496
-19.49
-26.968
-33.936
-40.446
-46.61
-52.552
-58.351
-64.095
-69.875
-75.765
-81.867
-88.274
-95.044
-102.285
-110.177
-118.805
-128.163
-138.093
-148.169
-157.944
-167.068
-175.102
-181.564
-186.239
-189.198
-190.95
-192.615
-195.277
-199.624
-206.278
-215.765
-228.052
-242.402
-257.161
-269.598
-276.936
-276.785
-266.799
-244.809
-209.139
-160.578
-102.526
-38.802
26.152
91.587
160.444
230.234
296.017
347.922
368.698
350.612
292.045
196.34
80.343
-42.152
-158.383
-253.164
-323.41
-369.475
-395.77
-415.089
-433.732
-453.728
-475.144
-492.624
-504.655
-513.442
-520.705
-529.052
-539.226
-549.86
-559.783
-567.911
-573.145
-574.55
-571.454
-563.668
-551.588
-535.77
-516.663
-494.639
-470.009
-443.587
-416.616
-389.894
-363.793
-338.765
-315.247
-293.834
-275.44
-260.193
-247.387
-236.573
-227.448
-219.647
-212.954
-206.868
-200.503
-193.547
-186.26
-178.773
-171.189
-163.511
-155.532
-147.239
-138.826
-130.275
-121.372
-111.961
-101.906
-91.184
-79.936
-68.268
-56.241
-43.965
-31.59
-19.259
-7.12
4.695
16.123
27.111
37.599
47.554
56.949
65.758
73.98
81.627
88.714
95.265
101.32
106.909
112.075
116.863
121.32
125.498
129.441
133.18
136.738
140.137
143.394
146.527
149.548
152.462
155.274
157.992
160.62
163.17
165.647
168.052
170.387
172.651
174.845
176.97
179.03
181.025
182.957
184.827
186.637
188.391
190.089
191.732
193.316
194.84
196.3
197.693
199.017
200.267
201.44
202.533
203.545
204.473
205.315
206.071
206.739
207.317
207.805
208.203
208.509
208.725
208.849
208.883
208.827
208.684
208.456
208.144
207.751
207.279
206.731
206.11
205.418
204.658
203.831
202.941
201.99
200.979
199.911
198.787
197.608
196.375
195.088
193.746
192.348
190.892
189.377
187.799
186.156
184.445
182.661
180.801
178.86
176.836
174.722
172.514
170.208
167.798
165.279
162.647
159.896
157.021
154.019
150.885
147.614
144.205
140.653
136.957
133.113
129.122
124.984
120.697
116.265
111.689
106.972
102.119
97.134
92.024
86.794
81.453
76.009
70.469
64.845
59.145
53.38
47.561
41.7
35.809
29.899
23.983
18.073
12.182
6.322
0.506
-5.253
-10.942
-16.551
-22.065
-27.474
-32.766
-37.931
-42.959
-47.841
-52.569
-57.138
-61.542
-65.775
-69.835
-73.719
-77.424
-80.949
-84.294
-87.46
-90.447
-93.26
-95.901
-98.375
-100.685
-102.838
-104.841
-106.7
-108.422
-110.014
-111.484
-112.84
-114.093
-115.25
-116.323
-117.322
-118.259
-119.145
-119.993
-120.812
-121.612
-122.403
-123.191
-123.983
-124.784
-125.596
-126.422
-127.268
-128.136
-129.033
-129.963
-130.93
-131.938
-132.991
-134.091
-135.238
-136.43
-137.658
-138.916
-140.199
-141.504
-142.832
-144.177
-145.527
-146.87
-148.191
-149.47
-150.684
-151.798
-152.76
-153.534
-154.092
-154.418
-154.507
-154.357
-153.957
-153.304
-152.395
-151.232
-149.827
-148.181
-146.283
-144.138
-141.761
-139.194
-136.519
-133.787
-131.021
-128.235
-125.419
-122.569
-119.688
-116.747
-113.691
-110.469
-107.026
-103.333
-99.393
-95.188
-90.681
-85.799
-80.42
-74.462
-67.879
-60.624
-52.658
-43.942
-34.427
-24.135
-13.155
-1.579
10.506
23.032
35.964
49.237
62.748
76.356
89.885
103.178
116.096
128.47
140.11
150.802
160.338
168.591
175.514
181.073
185.237
187.965
189.205
188.946
187.221
184.09
179.626
173.904
167.016
159.097
150.331
140.941
131.141
121.083
110.87
100.588
90.325
80.17
70.205
60.481
51.026
41.863
33.023
24.539
16.422
8.654
1.18
-6.082
-13.197
-20.198
-27.099
-33.901
-40.602
-47.199
-53.673
-59.989
-66.107
-71.996
-77.637
-83.016
-88.114
-92.899
-97.33
-101.362
-104.962
-108.112
-110.799
-113.019
-114.774
-116.072
-116.932
-117.384
-117.459
-117.184
-116.585
-115.688
-114.523
-113.123
-111.523
-109.759
-107.864
-105.872
-103.817
-101.728
-99.636
-97.567
-95.548
-93.603
-91.758
-90.036
-88.46
-87.055
-85.842
-84.84
-84.063
-83.519
-83.216
-83.157
-83.35
-83.805
-84.524
-85.507
-86.749
-88.247
-89.986
-91.947
-94.097
-96.386
-98.771
-101.207
-103.661
-106.105
-108.501
-110.811
-112.995
-115.008
-116.824
-118.418
-119.751
-120.794
-121.547
-122.039
-122.341
-122.541
-122.697
-122.853
-123.063
-123.378
-123.857
-124.555
-125.5
-126.702
-128.219
-130.162
-132.58
-135.454
-138.617
-141.714
-144.375
-146.247
-146.841
-145.669
-142.561
-137.448
-130.606
-122.993
-115.501
-109.103
-105.369
-104.396
-104.455
-104.472
-102.421
-98.593
-97.678
-99.985
-103.174
-100.714
-78.987
-31.147
43.855
142.405
251.79
361.116
459.396
533.61
574.075
571.624
523.013
432.65
311.518
177.588
48.351
-60.31
-138.709
-187.249
-210.272
-215.398
-209.763
-197.307
-182.631
-172.358
-174.138
-191.902
-224.592
-264.607
-299.468
-322.178
-330.098
-324.756
-314.13
-302.42
-291.307
-282.313
-271.919
-258.259
-241.601
-221.024
-197.893
-173.3
-146.564
-117.739
-87.08
-54.836
-22.041
9.844
39.781
66.686
89.075
106.064
117.483
123.467
124.868
123.079
119.099
113.941
108.957
105.013
102.543
101.796
102.439
103.86
105.819
108.094
110.33
112.411
114.282
115.918
117.57
119.546
121.933
124.739
127.92
131.329
134.876
138.476
141.965
145.161
147.914
150.131
151.789
152.909
153.503
153.573
153.13
152.203
150.848
149.127
147.098
144.813
142.318
139.669
136.934
134.182
131.481
128.882
126.418
124.116
122.002
120.096
118.417
116.976
115.771
114.805
114.081
113.605
113.381
113.41
113.684
114.2
114.948
115.922
117.115
118.519
120.121
121.911
123.878
126.009
128.293
130.715
133.257
135.902
138.63
141.421
144.254
147.11
149.966
152.802
155.598
158.336
160.997
163.562
166.014
168.336
170.512
172.526
174.361
176.003
177.438
178.653
179.635
180.375
180.862
181.088
181.046
180.73
180.137
179.263
178.106
176.665
174.94
172.933
170.646
168.084
165.252
162.158
158.808
155.212
151.379
147.318
143.04
138.552
133.866
128.99
123.937
118.715
113.338
107.817
102.166
96.397
90.525
84.562
78.523
72.421
66.268
60.077
53.858
47.623
41.383
35.15
28.934
22.747
16.602
10.511
4.484
-1.466
-7.33
-13.103
-18.778
-24.353
-29.824
-35.191
-40.451
-45.601
-50.633
-55.542
-60.318
-64.953
-69.441
-73.781
-77.977
-82.039
-85.973
-89.783
-93.467
-97.017
-100.416
-103.639
-106.656
-109.437
-111.959
-114.215
-116.209
-117.957
-119.48
-120.796
-121.906
-122.8
-123.464
-123.892
-124.09
-124.078
-123.893
-123.599
-123.275
-123.017
-122.911
-123.01
-123.318
-123.82
-124.469
-125.218
-126.059
-126.984
-127.968
-128.974
-129.921
-130.736
-131.375
-131.725
-131.602
-130.862
-129.386
-127.215
-124.602
-121.665
-118.37
-114.7
-110.569
-105.835
-100.406
-93.909
-85.68
-75.519
-63.669
-50.648
-37.337
-24.551
-12.902
-3.327
2.958
5.34
3.794
-1.167
-8.454
-17.225
-26.977
-36.951
-46.186
-54.058
-60.291
-65.083
-69.133
-72.85
-76.295
-79.606
-82.954
-86.459
-90.227
-94.146
-97.857
-101.16
-104.037
-106.51
-108.689
-110.664
-112.438
-114.055
-115.607
-117.156
-118.758
-120.437
-122.162
-123.903
-125.655
-127.409
-129.169
-130.926
-132.646
-134.289
-135.814
-137.179
-138.363
-139.354
-140.143
-140.724
-141.096
-141.259
-141.227
-141.02
-140.646
-140.113
-139.421
-138.577
-137.595
-136.49
-135.281
-133.983
-132.612
-131.182
-129.707
-128.2
-126.671
-125.132
-123.588
-122.047
-120.519
-119.014
-117.544
-116.118
-114.749
-113.445
-112.216
-111.072
-110.02
-109.066
-108.217
-107.475
-106.844
-106.327
-105.925
-105.637
-105.464
-105.402
-105.446
-105.591
-105.827
-106.146
-106.538
-106.993
-107.499
-108.044
-108.615
-109.202
-109.792
-110.369
-110.918
-111.42
-111.857
-112.209
-112.456
-112.575
-112.545
-112.342
-111.944
-111.331
-110.482
-109.374
-107.982
-106.277
-104.237
-101.848
-99.1
-95.984
-92.502
-88.658
-84.466
-79.953
-75.139
-70.043
-64.681
-59.058
-53.188
-47.085
-40.762
-34.236
-27.514
-20.585
-13.436
-6.053
1.602
9.56
17.868
26.594
35.776
45.434
55.578
66.189
77.252
88.743
100.61
112.796
125.227
137.794
150.384
162.871
175.085
186.869
198.055
208.46
217.949
226.411
233.75
239.905
244.824
248.475
250.868
252.034
252.016
250.899
248.792
245.832
242.221
238.141
233.767
229.286
224.84
220.557
216.56
212.945
209.786
207.138
205.027
203.472
202.487
202.036
202.039
202.377
202.874
203.397
203.847
204.103
204.056
203.601
202.627
201.055
198.875
196.038
192.449
188.109
183.09
177.622
172.163
167.161
162.978
160.049
158.797
159.333
161.605
165.145
168.934
172.111
173.949
173.593
170.589
165.262
158.267
151.024
146.028
145.63
152.279
168.952
196.413
232.732
276.298
324.605
378.031
441.768
515.805
595.411
668.509
713.901
717.823
674.919
590.455
484.194
374.018
275.009
197.084
138.012
93.256
56.213
20.388
-14.679
-46.965
-72.779
-89.648
-98.514
-102.453
-105.633
-110.403
-117.14
-125.532
-134.646
-143.701
-152.195
-159.032
-162.91
-163.177
-159.594
-152.317
-141.889
-128.805
-113.547
-96.809
-79.359
-61.771
-44.435
-27.57
-11.267
4.345
19.084
32.761
45.215
56.295
65.845
73.763
79.987
84.501
87.37
88.699
88.619
87.295
84.867
81.454
77.186
72.199
66.645
60.737
54.681
48.673
42.923
37.585
32.772
28.576
25.03
22.132
19.867
18.192
17.063
16.452
16.316
16.607
17.274
18.228
19.376
20.623
21.856
22.99
23.97
24.753
25.325
25.694
25.868
25.873
25.745
25.509
25.192
24.822
24.418
24.011
23.639
23.34
23.159
23.129
23.269
23.593
24.104
24.797
25.668
26.701
27.874
29.171
30.575
32.071
33.65
35.297
36.995
38.729
40.479
42.23
43.968
45.678
47.347
48.964
50.517
51.996
53.394
54.704
55.916
57.019
58.005
58.865
59.59
60.174
60.608
60.887
61.005
60.958
60.743
60.358
59.802
59.075
58.176
57.108
55.872
54.472
52.91
51.189
49.314
47.289
45.117
42.805
40.357
37.778
35.075
32.253
29.319
26.279
23.141
19.91
16.593
13.198
9.73
6.195
2.602
-1.044
-4.735
-8.466
-12.228
-16.015
-19.821
-23.638
-27.462
-31.287
-35.107
-38.917
-42.712
-46.487
-50.237
-53.955
-57.637
-61.276
-64.865
-68.397
-71.865
-75.262
-78.579
-81.81
-84.949
-87.988
-90.923
-93.749
-96.458
-99.047
-101.509
-103.838
-106.024
-108.058
-109.93
-111.63
-113.151
-114.486
-115.628
-116.57
-117.308
-117.84
-118.161
-118.266
-118.147
-117.79
-117.184
-116.33
-115.23
-113.895
-112.345
-110.594
-108.66
-106.568
-104.336
-101.973
-99.48
-96.838
-94.027
-91.043
-87.888
-84.582
-81.144
-77.575
-73.87
-70.022
-66.007
-61.807
-57.399
-52.734
-47.785
-42.559
-37.084
-31.432
-25.693
-19.93
-14.189
-8.507
-2.906
2.567
7.864
12.948
17.761
22.248
26.339
29.932
32.947
35.356
37.162
38.42
39.221
39.62
39.664
39.395
38.839
38.035
37.02
35.811
34.435
32.931
31.352
29.784
28.301
26.933
25.69
24.542
23.432
22.328
21.204
20.03
18.792
17.479
16.08
14.611
13.086
11.507
9.866
8.138
6.299
4.346
2.286
0.138
-2.064
-4.297
-6.54
-8.768
-10.963
-13.112
-15.207
-17.253
-19.258
-21.225
-23.151
-25.033
-26.86
-28.632
-30.346
-32.004
-33.607
-35.157
-36.654
-38.105
-39.512
-40.875
-42.194
-43.465
-44.684
-45.848
-46.955
-48.002
-48.988
-49.915
-50.782
-51.59
-52.344
-53.043
-53.689
-54.283
-54.827
-55.32
-55.765
-56.163
-56.514
-56.821
-57.087
-57.315
-57.509
-57.671
-57.805
-57.917
-58.01
-58.091
-58.164
-58.235
-58.31
-58.396
-58.5
-58.629
-58.788
-58.983
-59.218
-59.498
-59.826
-60.203
-60.629
-61.102
-61.622
-62.187
-62.797
-63.45
-64.144
-64.879
-65.652
-66.465
-67.313
-68.19
-69.089
-70.001
-70.917
-71.828
-72.721
-73.584
-74.403
-75.167
-75.869
-76.498
-77.041
-77.483
-77.802
-77.982
-78.016
-77.899
-77.628
-77.202
-76.625
-75.912
-75.095
-74.201
-73.247
-72.237
-71.163
-70.02
-68.808
-67.528
-66.182
-64.754
-63.222
-61.575
-59.809
-57.92
-55.893
-53.688
-51.24
-48.503
-45.458
-42.12
-38.522
-34.697
-30.687
-26.548
-22.354
-18.212
-14.221
-10.46
-6.99
-3.872
-1.177
0.996
2.529
3.331
3.343
2.535
0.9
-1.569
-4.851
-8.897
-13.624
-18.91
-24.642
-30.723
-37.046
-43.52
-50.051
-56.543
-62.91
-69.062
-74.902
-80.329
-85.239
-89.558
-93.276
-96.383
-98.846
-100.743
-102.186
-103.391
-104.752
-106.482
-108.57
-111.003
-113.717
-116.55
-119.427
-122.045
-123.671
-123.933
-122.818
-120.376
-116.985
-113.071
-108.752
-104.395
-100.93
-98.981
-99
-101.449
-106.257
-113.171
-122.067
-132.826
-144.924
-157.489
-169.372
-177.944
-179.399
-171.26
-152.564
-125.101
-94.385
-64.173
-32.83
6.928
66.195
153.882
268.281
393.729
508.572
589.585
619.403
597.151
528.814
424.866
303.511
176.798
57.265
-38.545
-105.253
-138.916
-141.154
-127.387
-109.643
-100.53
-110.001
-134.843
-169.006
-203.232
-228.496
-243.405
-250.485
-254.803
-260.316
-267.346
-274.034
-277.642
-276.899
-271.982
-263.449
-252.116
-238.483
-222.889
-205.998
-188.391
-170.44
-152.473
-134.656
-117.148
-100.167
-83.832
-68.171
-53.227
-39.055
-25.757
-13.508
-2.405
7.542
16.357
24.131
30.956
36.917
42.127
46.689
50.684
54.192
57.256
59.893
62.156
64.109
65.851
67.543
69.301
71.191
73.264
75.519
77.947
80.544
83.271
86.079
88.932
91.795
94.653
97.51
100.341
103.106
105.745
108.156
110.267
112.033
113.42
114.414
115.014
115.217
115.048
114.547
113.748
112.681
111.371
109.825
108.069
106.135
104.061
101.898
99.688
97.457
95.233
93.037
90.884
88.787
86.749
84.762
82.82
80.924
79.071
77.268
75.513
73.803
72.136
70.507
68.911
67.347
65.81
64.295
62.799
61.319
59.851
58.397
56.953
55.515
54.079
52.64
51.193
49.733
48.254
46.752
45.22
43.655
42.054
40.414
38.733
37.009
35.24
33.426
31.568
29.666
27.722
