Name,Kaushik Vada
Date of Birth,"Mar 17, 2005"
Recorded Date,2024-12-04 08:40:09 -0800
Classification,Sinus Rhythm
Symptoms,
Software Version,1.90
Device,"Watch7,9"
Sample Rate,512 hertz


Lead,Lead I
Unit,µV

-21.484
-27.723
-33.43
-37.429
-38.88
-37.36
-32.292
-23.686
-12.349
1.065
15.587
29.59
42.023
52.19
59.063
62.26
62.092
58.694
52.869
46.189
39.583
33.731
29.646
27.813
28.408
31.827
37.67
44.8
52.582
60.524
67.976
74.687
80.378
84.539
87.262
89.096
90.322
91.051
91.307
91.039
90.284
89.178
87.83
85.436
81.314
76.249
70.595
66.061
64.551
64.066
63.299
60.302
52.403
42.118
31.542
22.115
16.215
12.24
8.612
5.035
0.505
-4.386
-8.923
-13.288
-17.389
-21.289
-25.156
-28.891
-32.424
-35.772
-38.906
-41.803
-44.464
-46.91
-49.186
-51.326
-53.349
-55.238
-56.957
-58.49
-59.83
-60.966
-61.885
-62.579
-63.045
-63.295
-63.356
-63.246
-62.976
-62.555
-61.985
-61.272
-60.431
-59.472
-58.409
-57.256
-56.023
-54.724
-53.375
-51.987
-50.57
-49.131
-47.673
-46.2
-44.714
-43.218
-41.713
-40.201
-38.685
-37.166
-35.647
-34.132
-32.625
-31.124
-29.631
-28.146
-26.667
-25.196
-23.73
-22.259
-20.788
-19.333
-17.918
-16.572
-15.294
-14.065
-12.875
-11.732
-10.64
-9.576
-8.449
-7.167
-5.755
-4.283
-2.843
-1.478
-0.139
1.077
1.942
2.398
2.604
2.818
2.851
1.664
-1.607
-6.381
-9.673
-7.06
3.68
20.293
36.036
43.173
38.098
23.531
6.964
-4.444
-7.273
-2.974
3.792
9.581
12.905
14.081
14.749
15.608
16.582
17.596
18.369
18.863
19.367
19.995
20.757
21.73
22.896
24.21
25.672
27.25
28.9
30.616
32.4
34.238
36.133
38.086
40.089
42.143
44.236
46.351
48.468
50.568
52.63
54.634
56.559
58.385
60.09
61.649
63.042
64.248
65.241
65.999
66.496
66.706
66.612
66.198
65.446
64.348
62.885
61.048
58.849
56.277
53.311
49.934
46.117
41.862
37.212
32.18
26.759
20.983
14.906
8.623
2.256
-4.197
-10.79
-17.536
-24.404
-31.357
-38.501
-45.906
-53.475
-61.066
-68.344
-75.582
-84.074
-93.726
-103.305
-110.506
-111.115
-105.509
-98.315
-94.409
-100.458
-116.913
-137.799
-158.54
-173.995
-182.867
-188.976
-193.987
-198.782
-203.456
-205.738
-204.587
-200.189
-192.683
-183.18
-173.184
-163.895
-156.735
-153.229
-154.356
-160.601
-172.292
-188.353
-206.04
-222.249
-233.288
-237.165
-235.135
-228.415
-216.491
-194.706
-154.338
-87.661
8.807
131.654
272.847
423.637
574.151
713.578
828.188
899.536
911.456
857.319
740.869
579.862
399.049
218.516
55.765
-79.148
-181.928
-246.046
-269.246
-253.843
-207.949
-148.219
-92.419
-53.74
-35.494
-31.32
-30.503
-23.441
-8.188
11.229
28.772
38.962
40.926
36.984
29.94
22.623
16.629
12.493
10.678
11.236
13.868
18.229
23.83
30.103
36.452
42.239
46.844
49.953
51.593
51.914
51.175
49.661
47.641
45.452
43.442
41.811
40.633
39.918
39.627
39.74
40.259
41.146
42.353
43.845
45.597
47.6
49.835
52.248
54.775
57.347
59.917
62.472
65.004
67.497
69.966
72.467
75.038
77.712
80.504
83.38
86.306
89.3
92.284
95.011
97.423
99.646
101.665
103.633
105.245
105.333
104.084
102.722
103.186
109.062
120.859
135.848
149.904
156.522
152.991
141.031
125.044
112.679
108.505
113.572
125.479
138.028
147.013
150.077
147.487
142.621
137.611
133.697
131.165
128.806
126.083
122.996
119.506
115.842
112.044
107.919
103.404
98.506
93.218
87.565
81.577
75.279
68.711
61.927
54.96
47.827
40.551
33.159
25.679
18.143
10.58
3.018
-4.514
-11.985
-19.36
-26.606
-33.7
-40.617
-47.333
-53.829
-60.072
-66.027
-71.682
-77.024
-82.012
-86.612
-90.798
-94.535
-97.828
-100.702
-103.131
-105.076
-106.622
-107.868
-108.754
-109.289
-109.496
-109.16
-108.883
-109.248
-109.442
-109.228
-107.106
-101.28
-93.768
-85.919
-79.739
-77.973
-78.223
-78.458
-77.293
-72.425
-65.531
-58.307
-51.143
-45.08
-39.539
-33.772
-27.939
-21.957
-15.893
-9.913
-3.929
2.126
8.214
14.317
20.433
26.55
32.65
38.719
44.734
50.667
56.515
62.276
67.939
73.495
78.937
84.253
89.439
94.488
99.392
104.142
108.731
113.15
117.394
121.454
125.325
129
132.473
135.736
138.784
141.61
144.209
146.575
148.702
150.584
152.218
153.6
154.729
155.603
156.219
156.578
156.677
156.517
156.099
155.426
154.499
153.318
151.889
150.218
148.314
146.189
143.85
141.307
138.566
135.636
132.531
129.263
125.848
122.3
118.628
114.849
110.98
107.04
103.046
99.006
94.922
90.796
86.63
82.435
78.229
74.018
69.804
65.577
61.314
57.013
52.688
48.355
44.033
39.713
35.379
31.058
26.828
22.735
18.786
14.868
10.773
6.43
1.884
-2.789
-7.496
-12.169
-16.686
-20.625
-23.327
-24.374
-23.62
-21.181
-17.585
-13.406
-9.149
-5.78
-4.039
-3.764
-5.656
-10.526
-19.287
-34.425
-54.904
-76.329
-94.174
-102.361
-99.687
-90.859
-80.156
-72.342
-69.251
-68.235
-67.889
-67.703
-67.774
-69.589
-73.548
-79.011
-85.354
-91.97
-98.527
-104.896
-110.932
-116.462
-121.454
-126.069
-130.528
-134.986
-139.482
-143.938
-148.369
-153
-157.891
-162.966
-168.236
-173.399
-178.787
-185.675
-193.813
-202.071
-208.637
-209.78
-205.509
-199.63
-195.804
-199.294
-210.77
-225.063
-238.165
-246.143
-248.236
-248.176
-248.428
-250.49
-254.749
-259.911
-265.212
-270.191
-274.283
-277.217
-278.512
-277.606
-274.2
-267.969
-259.069
-248.354
-236.996
-226.349
-217.792
-212.859
-213.17
-220.237
-235.12
-257.423
-285.165
-316.122
-347.682
-377.784
-405.904
-429.967
-446.614
-451.369
-436.939
-397.624
-331.413
-238.607
-123.965
6.011
147.683
296.741
447.192
589.58
705.308
771.79
770.029
691.357
544.852
354.842
151.872
-37.633
-198.1
-324.958
-419.599
-482.763
-513.311
-510.945
-480.626
-434.264
-387.475
-353.584
-336.673
-332.116
-330.67
-323.316
-307.932
-288.125
-269.476
-257.202
-252.629
-253.909
-258.453
-263.991
-269.426
-274.429
-278.819
-282.303
-284.419
-285.08
-284.518
-282.946
-280.727
-278.225
-275.679
-273.494
-272.104
-271.617
-271.961
-272.96
-274.302
-275.76
-277.185
-278.355
-279.042
-279.122
-278.533
-277.291
-275.482
-273.152
-270.326
-267.041
-263.335
-259.256
-254.854
-250.175
-245.255
-240.121
-234.792
-229.284
-223.605
-217.759
-211.741
-205.536
-199.126
-192.498
-185.647
-178.572
-171.275
-163.753
-156.003
-148.022
-139.81
-131.372
-122.716
-113.85
-104.786
-95.54
-86.132
-76.588
-66.935
-57.2
-47.409
-37.589
-27.767
-17.972
-8.234
1.416
10.949
20.332
29.534
38.521
47.259
55.719
63.868
71.677
79.118
86.164
92.789
98.972
104.69
109.925
114.66
118.88
122.573
125.731
128.346
130.416
131.938
132.916
133.355
133.262
132.648
131.526
129.913
127.829
125.294
122.332
118.967
115.224
111.133
106.729
102.036
97.08
91.891
86.497
80.935
75.249
69.464
63.605
57.729
51.883
46.113
40.464
34.948
29.562
24.346
19.347
14.484
9.657
4.947
0.38
-4.05
-8.117
-12.431
-17.559
-22.59
-27.219
-29.833
-28.558
-25.547
-22.169
-20.612
-23.994
-29.79
-35.769
-40.473
-41.222
-40.213
-40.502
-42.197
-45.266
-47.162
-43.507
-34.773
-24.433
-16.134
-15.136
-21.548
-30.509
-38.365
-41.112
-38.135
-33.026
-27.966
-24.478
-22.999
-22.087
-21.091
-20.05
-18.918
-17.916
-17.093
-16.252
-15.329
-14.354
-13.317
-12.207
-11.028
-9.784
-8.489
-7.173
-5.841
-4.475
-3.065
-1.61
-0.107
1.445
3.05
4.715
6.441
8.228
10.075
11.983
13.95
15.976
18.06
20.199
22.39
24.631
26.919
29.248
31.615
34.015
36.443
38.892
41.358
43.832
46.31
48.784
51.248
53.694
56.116
58.506
60.857
63.163
65.417
67.611
69.74
71.796
73.773
75.665
77.468
79.174
80.778
82.277
83.664
84.935
86.086
87.114
88.014
88.782
89.417
89.914
90.272
90.488
90.561
90.488
90.27
89.904
89.392
88.733
87.927
86.976
85.88
84.642
83.265
81.75
80.101
78.32
76.412
74.382
72.232
69.97
67.599
65.126
62.557
59.899
57.161
54.349
51.472
48.538
45.555
42.533
39.482
36.41
33.328
30.245
27.173
24.123
21.103
18.126
15.199
12.334
9.54
6.826
4.199
1.667
-0.764
-3.086
-5.293
-7.379
-9.341
-11.174
-12.877
-14.447
-15.883
-17.19
-18.372
-19.434
-20.385
-21.231
-21.98
-22.643
-23.232
-23.758
-24.23
-24.659
-25.054
-25.429
-25.8
-26.179
-26.578
-27.006
-27.472
-27.986
-28.562
-29.206
-29.921
-30.707
-31.569
-32.513
-33.559
-34.72
-36.001
-37.41
-38.95
-40.623
-42.43
-44.36
-46.383
-48.471
-50.588
-52.699
-54.787
-56.824
-58.781
-60.638
-62.356
-63.892
-65.221
-66.304
-67.098
-67.626
-67.899
-67.92
-67.797
-67.66
-67.678
-68.155
-69.341
-71.317
-74.172
-77.984
-82.634
-87.96
-93.619
-98.85
-102.942
-105.49
-106.139
-104.698
-101.345
-96.342
-90.296
-84.55
-80.627
-79.791
-83.187
-91.691
-104.886
-121.339
-139.224
-155.359
-167.769
-176.811
-181.563
-180.967
-171.421
-144.857
-95.733
-20.079
82.424
205.956
346.148
496.102
645.723
783.123
887.759
938.272
919.366
825.41
669.206
475.738
273.554
88.924
-64.115
-180.609
-260.066
-305.578
-317.377
-298.621
-258.28
-207.171
-160.324
-126.874
-106.62
-94.877
-81.726
-62.04
-37.808
-13.677
3.073
9.031
5.481
-4.908
-18.263
-31.88
-44.539
-55.121
-62.796
-67.182
-68.246
-66.387
-62.319
-56.846
-50.762
-44.893
-40.028
-36.556
-34.502
-33.729
-33.908
-34.666
-35.707
-36.698
-37.307
-37.386
-36.892
-35.829
-34.282
-32.319
-29.967
-27.281
-24.312
-21.085
-17.634
-13.98
-10.148
-6.198
-2.178
1.876
5.928
9.985
14.05
18.106
22.192
26.38
30.709
35.219
39.921
44.733
49.597
54.554
59.534
64.294
68.766
73.058
77.171
81.466
85.825
88.838
90.487
92.062
95.497
105.122
121.924
141.31
157.758
163.68
155.354
138.623
121.272
111.435
115.188
129.103
146.441
161.948
170.663
173.192
173.619
173.809
175.183
177.739
179.535
180.078
179.82
178.883
177.664
176.353
174.707
172.728
170.644
168.448
166.002
163.249
160.114
156.584
152.771
148.71
144.371
139.771
134.946
129.931
124.777
119.516
114.148
108.688
103.157
97.583
92
86.442
80.936
75.509
70.189
65.001
59.973
55.129
50.495
46.092
41.941
38.062
34.473
31.191
28.229
25.6
23.308
21.357
19.751
18.489
17.57
16.99
16.744
16.823
17.219
17.918
18.91
20.178
21.707
23.479
25.474
27.673
30.055
32.599
35.283
38.084
40.98
43.948
46.964
50.007
53.053
56.082
59.071
62
64.85
67.603
70.241
72.749
75.112
77.318
79.355
81.213
82.883
84.359
85.635
86.707
87.571
88.226
88.673
88.912
88.945
88.776
88.41
87.851
87.107
86.185
85.092
83.839
82.433
80.885
79.206
77.406
75.496
73.487
71.391
69.218
66.978
64.684
62.344
59.968
57.567
55.149
52.722
50.294
47.873
45.466
43.077
40.714
38.381
36.082
33.822
31.604
29.431
27.306
25.229
23.204
21.229
19.307
17.437
15.619
13.852
12.136
10.468
8.847
7.273
5.743
4.255
2.808
1.399
0.027
-1.309
-2.613
-3.886
-5.129
-6.344
-7.534
-8.699
-9.841
-10.962
-12.062
-13.144
-14.208
-15.257
-16.291
-17.312
-18.322
-19.321
-20.312
-21.294
-22.269
-23.238
-24.202
-25.16
-26.115
-27.065
-28.011
-28.955
-29.897
-30.838
-31.777
-32.715
-33.654
-34.592
-35.53
-36.469
-37.407
-38.345
-39.281
-40.217
-41.15
-42.081
-43.007
-43.928
-44.841
-45.744
-46.636
-47.513
-48.372
-49.21
-50.024
-50.812
-51.571
-52.298
-52.99
-53.645
-54.262
-54.838
-55.372
-55.861
-56.302
-56.696
-57.04
-57.335
-57.581
-57.779
-57.931
-58.041
-58.116
-58.158
-58.174
-58.173
-58.159
-58.144
-58.138
-58.147
-58.182
-58.251
-58.363
-58.532
-58.766
-59.072
-59.458
-59.929
-60.489
-61.148
-61.911
-62.773
-63.731
-64.781
-65.924
-67.168
-68.52
-69.979
-71.545
-73.219
-75
-76.892
-78.888
-80.963
-83.09
-85.236
-87.374
-89.493
-91.582
-93.625
-95.598
-97.461
-99.179
-100.722
-102.062
-103.187
-104.073
-104.694
-105.1
-105.403
-105.771
-106.47
-107.698
-109.562
-112.207
-115.725
-120.061
-125.098
-130.447
-135.443
-139.58
-142.472
-143.651
-142.763
-139.601
-134.116
-127.383
-121.421
-117.943
-117.929
-120.164
-122.079
-122.061
-120.816
-123.313
-135.253
-160.054
-196.926
-237.23
-270.089
-285.066
-273.535
-234.103
-168.916
-83.121
17.137
129.008
251.571
387.488
535.737
687.616
827.662
929.545
968.863
931.68
815.768
639.079
430.08
217.434
27.724
-123.736
-230.973
-292.205
-310.86
-293.332
-250.078
-195.892
-146.581
-114.574
-102.762
-105.798
-113.157
-113.684
-104.069
-87.192
-68.88
-55.969
-50.439
-50.515
-53.736
-57.378
-60.22
-62.312
-63.519
-63.532
-62.242
-59.721
-56.197
-52.002
-47.486
-42.923
-38.695
-35.338
-33.087
-31.922
-31.739
-32.289
-33.296
-34.547
-35.768
-36.638
-36.982
-36.728
-35.838
-34.361
-32.338
-29.788
-26.763
-23.329
-19.525
-15.388
-10.958
-6.27
-1.377
3.654
8.779
13.965
19.187
24.439
29.714
35.008
40.332
45.7
51.12
56.594
62.121
67.699
73.328
79.012
84.752
90.547
96.394
102.287
108.216
114.171
120.135
126.088
132.008
137.873
143.66
149.348
154.915
160.341
165.602
170.676
175.542
180.179
184.562
188.671
192.481
195.971
199.121
201.91
204.321
206.335
207.938
209.115
209.854
210.146
209.981
209.354
208.26
206.697
204.666
202.17
199.214
195.806
191.959
187.685
182.997
177.915
172.457
166.645
160.503
154.057
147.329
140.349
133.145
125.749
118.194
110.512
102.735
94.892
87.013
79.132
71.282
63.496
55.803
48.228
40.797
33.538
26.479
19.644
13.051
6.712
0.632
-5.18
-10.711
-15.951
-20.886
-25.519
-29.865
-33.935
-37.743
-41.291
-44.561
-47.561
-50.311
-52.825
-55.127
-57.205
-58.982
-60.478
-61.795
-63.022
-64.285
-65.619
-66.875
-68
-69.097
-70.112
-70.857
-71.105
-70.433
-68.616
-65.921
-62.745
-59.294
-55.794
-52.732
-49.924
-47.601
-47.083
-48.325
-52.459
-60.838
-70.839
-80.771
-88.039
-88.847
-85.176
-79.261
-73.027
-69.69
-68.012
-66.396
-64.717
-62.368
-60.454
-59.958
-60.522
-61.741
-63.167
-64.504
-65.78
-66.979
-67.896
-68.383
-68.484
-68.39
-68.256
-68.141
-68.023
-67.838
-67.595
-67.338
-67.074
-66.784
-66.442
-66.032
-65.564
-65.071
-64.577
-64.092
-63.62
-63.161
-62.717
-62.295
-61.904
-61.551
-61.24
-60.973
-60.75
-60.573
-60.442
-60.359
-60.324
-60.335
-60.389
-60.484
-60.621
-60.802
-61.028
-61.297
-61.61
-61.962
-62.353
-62.78
-63.242
-63.735
-64.257
-64.805
-65.375
-65.965
-66.572
-67.193
-67.824
-68.462
-69.103
-69.743
-70.38
-71.012
-71.635
-72.249
-72.85
-73.439
-74.013
-74.572
-75.115
-75.641
-76.149
-76.64
-77.112
-77.564
-77.998
-78.411
-78.804
-79.178
-79.531
-79.863
-80.173
-80.462
-80.727
-80.969
-81.186
-81.377
-81.539
-81.672
-81.775
-81.845
-81.88
-81.878
-81.837
-81.753
-81.624
-81.445
-81.212
-80.921
-80.568
-80.148
-79.658
-79.094
-78.453
-77.732
-76.926
-76.035
-75.055
-73.986
-72.824
-71.569
-70.222
-68.782
-67.253
-65.638
-63.941
-62.168
-60.328
-58.429
-56.481
-54.495
-52.482
-50.456
-48.432
-46.423
-44.443
-42.508
-40.632
-38.832
-37.123
-35.52
-34.035
-32.681
-31.468
-30.41
-29.518
-28.798
-28.249
-27.871
-27.664
-27.633
-27.79
-28.139
-28.679
-29.414
-30.344
-31.47
-32.793
-34.301
-35.958
-37.73
-39.585
-41.502
-43.48
-45.521
-47.608
-49.714
-51.795
-53.814
-55.742
-57.564
-59.228
-60.662
-61.867
-62.923
-64.013
-65.419
-67.372
-70
-73.46
-77.921
-83.35
-89.593
-96.251
-102.569
-107.885
-111.711
-113.488
-112.757
-109.415
-103.549
-95.724
-87.166
-79.084
-72.655
-69.197
-69.943
-75.829
-87.46
-104.828
-126.32
-149.029
-169.87
-185.433
-194.427
-198.222
-196.828
-188.701
-167.87
-124.634
-53.327
47.001
169.53
302.847
439.756
574.531
703.721
820.826
908.284
945.978
916.62
813.417
649.625
450.359
244.062
56.724
-96.897
-210.506
-280.456
-307.25
-295.277
-253.486
-198.481
-148.449
-114.272
-98.064
-91.941
-83.188
-65.41
-39.34
-11.422
9.055
18.023
16.22
6.676
-6.025
-19.154
-31.384
-41.365
-48.278
-51.683
-51.511
-48.309
-42.912
-36.122
-28.82
-21.941
-16.283
-12.285
-10
-9.213
-9.57
-10.698
-12.223
-13.765
-14.982
-15.672
-15.783
-15.323
-14.346
-12.902
-11.022
-8.743
-6.115
-3.161
0.107
3.664
7.487
11.529
15.726
20.033
24.417
28.857
33.342
37.87
42.435
47.046
51.715
56.443
61.235
66.097
71.032
76.053
81.166
86.363
91.642
97.005
102.444
107.95
113.508
119.085
124.667
130.253
135.838
141.425
147.001
152.532
157.991
163.348
168.587
173.717
178.73
183.603
188.326
192.898
197.324
201.632
205.799
209.755
213.438
216.785
219.757
222.35
224.547
226.322
227.646
228.476
228.788
228.584
227.837
226.504
224.538
221.875
218.514
214.531
209.986
204.937
199.426
193.465
187.088
180.349
173.292
165.957
158.376
150.565
142.57
134.465
126.325
118.238
110.242
102.32
94.47
86.701
79.024
71.47
64.054
56.77
49.634
42.676
35.924
29.414
23.159
17.15
11.383
5.845
0.544
-4.493
-9.248
-13.713
-17.88
-21.748
-25.312
-28.561
-31.498
-34.141
-36.508
-38.618
-40.485
-42.115
-43.52
-44.714
-45.712
-46.535
-47.2
-47.724
-48.125
-48.421
-48.632
-48.78
-48.88
-48.944
-48.985
-49.015
-49.046
-49.09
-49.157
-49.254
-49.39
-49.573
-49.808
-50.102
-50.457
-50.876
-51.358
-51.905
-52.515
-53.186
-53.916
-54.7
-55.536
-56.419
-57.345
-58.307
-59.302
-60.322
-61.363
-62.419
-63.483
-64.55
-65.614
-66.669
-67.71
-68.73
-69.726
-70.693
-71.626
-72.52
-73.373
-74.183
-74.945
-75.659
-76.322
-76.934
-77.494
-78.004
-78.462
-78.872
-79.234
-79.55
-79.824
-80.057
-80.253
-80.414
-80.544
-80.645
-80.722
-80.777
-80.813
-80.834
-80.842
-80.84
-80.831
-80.818
-80.803
-80.789
-80.779
-80.773
-80.775
-80.786
-80.809
-80.845
-80.895
-80.96
-81.043
-81.142
-81.259
-81.394
-81.547
-81.717
-81.906
-82.111
-82.332
-82.57
-82.823
-83.09
-83.37
-83.663
-83.967
-84.282
-84.607
-84.94
-85.281
-85.63
-85.984
-86.344
-86.709
-87.078
-87.45
-87.823
-88.197
-88.57
-88.941
-89.307
-89.667
-90.017
-90.357
-90.683
-90.993
-91.285
-91.556
-91.801
-92.019
-92.206
-92.359
-92.473
-92.544
-92.569
-92.545
-92.466
-92.332
-92.137
-91.878
-91.554
-91.161
-90.697
-90.159
-89.544
-88.851
-88.078
-87.225
-86.291
-85.279
-84.189
-83.026
-81.796
-80.505
-79.16
-77.768
-76.338
-74.879
-73.405
-71.924
-70.448
-68.988
-67.555
-66.161
-64.82
-63.545
-62.342
-61.222
-60.19
-59.255
-58.428
-57.714
-57.11
-56.616
-56.23
-55.954
-55.801
-55.777
-55.881
-56.116
-56.48
-56.972
-57.596
-58.34
-59.179
-60.086
-61.025
-61.966
-62.903
-63.826
-64.728
-65.595
-66.384
-67.061
-67.596
-67.956
-68.128
-68.088
-67.796
-67.299
-66.717
-66.243
-66.173
-66.754
-68.129
-70.477
-73.884
-78.259
-83.449
-88.991
-94.138
-98.256
-100.71
-100.883
-98.539
-93.7
-86.54
-77.872
-68.906
-60.851
-55.251
-53.638
-56.999
-65.988
-80.913
-100.622
-122.662
-144.184
-161.332
-171.688
-175.467
-172.203
-161.219
-139.287
-99.422
-37.346
49.244
158.894
285.394
425.237
572.463
717.476
847.649
940.228
973.309
933.326
817.326
642.635
437.026
229.265
46.037
-99.875
-205.181
-270.647
-302.451
-303.509
-277.53
-233.175
-179.237
-128.837
-92.641
-72.302
-65.179
-62.872
-57.149
-46.865
-34.11
-23.394
-19.207
-21.597
-28.464
-37.278
-45.204
-50.866
-53.898
-54.2
-52.169
-48.332
-43.171
-37.251
-31.206
-25.673
-21.251
-18.276
-16.752
-16.494
-17.205
-18.556
-20.225
-21.892
-23.24
-24.071
-24.323
-23.986
-23.102
-21.718
-19.859
-17.562
-14.88
-11.846
-8.481
-4.818
-0.89
3.251
7.536
11.913
16.351
20.822
25.318
29.834
34.368
38.927
43.531
48.187
52.901
57.674
62.505
67.398
72.359
77.396
82.514
87.716
93.001
98.364
103.798
109.293
114.833
120.398
125.969
131.524
137.045
142.512
147.905
153.205
158.388
163.433
168.319
173.023
177.521
181.789
185.803
189.539
192.975
196.09
198.862
201.271
203.3
204.931
206.149
206.941
207.294
207.2
206.649
205.636
204.16
202.217
199.812
196.947
193.629
189.869
185.678
181.071
176.065
170.677
164.929
158.843
152.443
145.755
138.806
131.624
124.239
116.681
108.981
101.172
93.284
85.351
77.404
69.473
61.59
53.785
46.085
38.52
31.114
23.892
16.879
10.095
3.561
-2.707
-8.693
-14.384
-19.767
-24.834
-29.578
-33.995
-38.08
-41.835
-45.259
-48.356
-51.13
-53.589
-55.738
-57.589
-59.152
-60.438
-61.461
-62.233
-62.771
-63.089
-63.203
-63.128
-62.882
-62.481
-61.94
-61.277
-60.506
-59.643
-58.704
-57.702
-56.652
-55.567
-54.458
-53.338
-52.218
-51.106
-50.013
-48.947
-47.913
-46.92
-45.972
-45.073
-44.229
-43.442
-42.715
-42.049
-41.445
-40.904
-40.426
-40.01
-39.655
-39.36
-39.121
-38.938
-38.808
-38.728
-38.695
-38.707
-38.76
-38.853
-38.981
-39.143
-39.336
-39.556
-39.803
-40.072
-40.362
-40.671
-40.997
-41.338
-41.693
-42.06
-42.437
-42.825
-43.22
-43.622
-44.029
-44.441
-44.857
-45.275
-45.696
-46.118
-46.542
-46.967
-47.394
-47.821
-48.251
-48.681
-49.114
-49.548
-49.985
-50.425
-50.867
-51.313
-51.764
-52.219
-52.68
-53.147
-53.62
-54.099
-54.585
-55.077
-55.577
-56.083
-56.596
-57.115
-57.643
-58.178
-58.722
-59.273
-59.833
-60.4
-60.975
-61.556
-62.142
-62.732
-63.324
-63.915
-64.504
-65.088
-65.665
-66.23
-66.782
-67.315
-67.825
-68.309
-68.76
-69.175
-69.547
-69.872
-70.147
-70.365
-70.523
-70.615
-70.638
-70.589
-70.463
-70.257
-69.967
-69.59
-69.124
-68.569
-67.923
-67.186
-66.358
-65.442
-64.444
-63.37
-62.227
-61.026
-59.775
-58.486
-57.173
-55.848
-54.521
-53.199
-51.893
-50.611
-49.368
-48.174
-47.044
-45.986
-45.01
-44.123
-43.332
-42.639
-42.04
-41.53
-41.104
-40.764
-40.528
-40.412
-40.429
-40.594
-40.917
-41.399
-42.037
-42.82
-43.72
-44.715
-45.795
-46.945
-48.16
-49.425
-50.708
-51.979
-53.197
-54.293
-55.181
-55.816
-56.196
-56.416
-56.673
-57.119
-57.858
-59.007
-60.691
-62.972
-65.78
-68.796
-71.46
-73.377
-74.434
-74.639
-74.008
-72.515
-70.201
-67.513
-65.367
-64.344
-64.45
-65.605
-67.581
-70.984
-77.508
-87.238
-98.999
-111.069
-119.541
-123.345
-124.958
-126.111
-131.466
-143.887
-159.224
-172.403
-174.216
-151.902
-99.826
-17.191
92.759
218.354
350.849
488.018
625.877
761.61
885.459
973.454
1002.748
957.262
833.832
652.54
442.396
231.701
45.178
-107.182
-221.755
-295.913
-332.078
-330.454
-296.384
-243.212
-183.805
-133.814
-102.6
-88.28
-85.756
-85.105
-78.318
-65.64
-49.71
-35.246
-26.985
-24.808
-26.695
-30.756
-34.755
-37.876
-40.335
-41.907
-42.311
-41.619
-39.953
-37.469
-34.538
-31.449
-28.333
-25.556
-23.558
-22.453
-22.186
-22.591
-23.348
-24.244
-25.165
-25.908
-26.24
-26.03
-25.216
-23.818
-21.936
-19.627
-16.916
-13.846
-10.46
-6.813
-2.962
1.041
5.157
9.356
13.614
17.913
22.238
26.581
30.941
35.337
39.796
44.342
48.991
53.745
58.598
63.543
68.566
73.656
78.799
83.97
89.148
94.327
99.509
104.714
109.96
115.246
120.557
125.864
131.139
136.379
141.583
146.754
151.914
157.079
162.274
167.55
172.931
178.402
183.921
189.398
194.723
199.819
204.626
209.101
213.212
216.904
220.12
222.818
224.932
226.398
227.139
227.037
226.008
224.026
221.106
217.323
212.791
207.59
201.786
195.443
188.61
181.346
173.714
165.751
157.508
149.053
140.467
131.873
123.38
115.042
106.891
98.913
91.064
83.328
75.697
68.154
60.701
53.345
46.091
38.974
32.025
25.259
18.68
12.269
6.007
-0.1
-6.037
-11.776
-17.275
-22.505
-27.441
-32.054
-36.327
-40.249
-43.817
-47.044
-49.947
-52.54
-54.83
-56.823
-58.523
-59.942
-61.092
-61.989
-62.651
-63.097
-63.346
-63.418
-63.336
-63.115
-62.772
-62.319
-61.766
-61.124
-60.404
-59.617
-58.774
-57.886
-56.963
-56.016
-55.055
-54.09
-53.126
-52.172
-51.23
-50.306
-49.403
-48.523
-47.667
-46.838
-46.035
-45.258
-44.507
-43.782
-43.08
-42.4
-41.741
-41.101
-40.478
-39.869
-39.274
-38.69
-38.116
-37.551
-36.994
-36.444
-35.9
-35.364
-34.834
-34.31
-33.794
-33.286
-32.785
-32.292
-31.81
-31.339
-30.881
-30.439
-30.014
-29.61
-29.228
-28.873
-28.547
-28.253
-27.994
-27.773
-27.592
-27.456
-27.365
-27.323
-27.332
-27.393
-27.507
-27.676
-27.9
-28.178
-28.511
-28.898
-29.338
-29.829
-30.369
-30.956
-31.588
-32.26
-32.971
-33.715
-34.488
-35.285
-36.1
-36.928
-37.763
-38.598
-39.427
-40.244
-41.04
-41.808
-42.541
-43.231
-43.871
-44.452
-44.967
-45.409
-45.771
-46.048
-46.233
-46.321
-46.307
-46.188
-45.96
-45.62
-45.165
-44.594
-43.906
-43.101
-42.181
-41.15
-40.01
-38.767
-37.429
-36.004
-34.502
-32.932
-31.309
-29.644
-27.954
-26.253
-24.557
-22.883
-21.246
-19.661
-18.145
-16.713
-15.378
-14.151
-13.045
-12.071
-11.242
-10.562
-10.032
-9.653
-9.421
-9.338
-9.413
-9.649
-10.043
-10.599
-11.317
-12.199
-13.249
-14.455
-15.792
-17.229
-18.74
-20.303
-21.92
-23.592
-25.309
-27.044
-28.758
-30.416
-31.988
-33.455
-34.767
-35.845
-36.692
-37.386
-38.094
-39.083
-40.566
-42.646
-45.476
-49.245
-53.911
-59.301
-65.056
-70.451
-74.917
-78.11
-79.507
-78.613
-75.354
-69.81
-62.438
-54.396
-46.642
-39.976
-35.638
-34.873
-38.579
-47.5
-61.887
-80.486
-101.267
-122.053
-139.543
-151.746
-159.011
-160.622
-155.929
-142.002
-111.203
-58.038
21.356
127.545
254.687
398.273
552.261
707.267
851.821
965.013
1022.762
1006.26
907.119
737.173
524.01
301.157
99.85
-62.535
-181.302
-259.306
-304.096
-319.319
-307.861
-276.218
-231.271
-185.034
-148.83
-125.213
-112.866
-104.746
-92.239
-74.194
-53.004
-33.287
-20.68
-16.226
-17.998
-23.721
-30.784
-37.568
-43.599
-48.38
-51.352
-52.435
-51.841
-49.823
-46.802
-43.321
-39.781
-36.681
-34.599
-33.673
-33.795
-34.778
-36.274
-38.007
-39.8
-41.406
-42.565
-43.157
-43.133
-42.517
-41.411
-39.867
-37.911
-35.588
-32.941
-30.025
-26.898
-23.609
-20.203
-16.714
-13.164
-9.572
-5.948
-2.295
1.393
5.131
8.942
12.839
16.826
20.91
25.087
29.364
33.751
38.253
42.878
47.627
52.497
57.486
62.587
67.79
73.079
78.434
83.831
89.249
94.668
100.066
105.422
110.711
115.908
120.99
125.932
130.706
135.284
139.639
143.742
147.564
151.078
154.26
157.082
159.522
161.557
163.165
164.327
165.027
165.248
164.977
164.203
162.918
161.117
158.797
155.958
152.603
148.739
144.375
139.524
134.199
128.42
122.205
115.577
108.561
101.184
93.473
85.459
77.173
68.65
59.922
51.026
41.997
32.871
23.684
14.472
5.271
-3.884
-12.959
-21.92
-30.736
-39.377
-47.812
-56.015
-63.961
-71.626
-78.991
-86.036
-92.745
-99.106
-105.108
-110.741
-116
-120.881
-125.382
-129.506
-133.253
-136.63
-139.644
-142.302
-144.615
-146.594
-148.253
-149.605
-150.665
-151.449
-151.973
-152.255
-152.311
-152.159
-151.817
-151.302
-150.634
-149.827
-148.901
-147.87
-146.751
-145.559
-144.308
-143.01
-141.679
-140.325
-138.959
-137.59
-136.226
-134.874
-133.54
-132.23
-130.947
-129.695
-128.476
-127.293
-126.146
-125.037
-123.965
-122.93
-121.931
-120.968
-120.038
-119.141
-118.274
-117.436
-116.625
-115.838
-115.074
-114.331
-113.606
-112.899
-112.208
-111.531
-110.869
-110.22
-109.584
-108.961
-108.352
-107.757
-107.177
-106.614
-106.069
-105.543
-105.039
-104.558
-104.101
-103.671
-103.269
-102.896
-102.554
-102.244
-101.966
-101.72
-101.508
-101.33
-101.185
-101.072
-100.99
-100.939
-100.916
-100.918
-100.944
-100.99
-101.051
-101.125
-101.206
-101.291
-101.373
-101.447
-101.506
-101.544
-101.553
-101.528
-101.46
-101.341
-101.164
-100.921
-100.606
-100.213
-99.735
-99.165
-98.499
-97.732
-96.86
-95.879
-94.787
-93.579
-92.257
-90.817
-89.263
-87.594
-85.815
-83.928
-81.943
-79.865
-77.705
-75.471
-73.174
-70.826
-68.441
-66.032
-63.612
-61.196
-58.798
-56.436
-54.125
-51.884
-49.725
-47.663
-45.709
-43.875
-42.172
-40.61
-39.193
-37.923
-36.804
-35.84
-35.047
-34.432
-33.997
-33.74
-33.663
-33.76
-34.029
-34.462
-35.028
-35.704
-36.465
-37.282
-38.145
-39.039
-39.934
-40.814
-41.641
-42.378
-43.012
-43.512
-43.847
-44.034
-44.08
-44
-43.893
-43.866
-44.061
-44.723
-46.011
-47.993
-50.765
-54.38
-58.791
-63.874
-69.254
-74.285
-78.454
-81.43
-82.825
-82.241
-79.333
-73.962
-67.18
-61.165
-57.799
-57.846
-59.523
-59.685
-56.583
-51.325
-49.656
-57.584
-78.253
-110.904
-147.107
-177.543
-193.715
-186.129
-151.549
-87.739
6.517
125.225
263.541
415.183
570.004
719.779
850.622
943.168
980.1
947.474
843.219
681.824
486.869
285.574
101.957
-51.217
-167.989
-246.614
-289.341
-296.751
-274.464
-233.619
-186.01
-146.711
-122.98
-112.579
-109.993
-104.819
-91.887
-73.422
-53.425
-37.805
-29.244
-26.389
-26.949
-28.46
-29.834
-30.961
-31.844
-32.599
-33.005
-32.763
-31.983
-30.736
-29.054
-27.151
-25.141
-23.14
-21.432
-20.286
-19.756
-19.762
-20.15
-20.717
-21.329
-21.896
-22.262
-22.224
-21.658
-20.534
-18.882
-16.778
-14.274
-11.386
-8.147
-4.625
-0.886
3.002
6.979
11.025
15.129
19.276
23.46
27.677
31.927
36.229
40.609
45.085
49.665
54.355
59.158
64.078
69.129
74.318
79.652
85.134
90.76
96.529
102.434
108.467
114.616
120.861
127.182
133.555
139.961
146.378
152.785
159.157
165.469
171.695
177.808
183.78
189.583
195.185
200.557
205.667
210.486
214.986
219.138
222.917
226.296
229.253
231.766
233.814
235.38
236.447
237.003
237.035
236.537
235.501
233.926
231.812
229.162
225.983
222.285
218.079
213.381
208.209
202.583
196.526
190.063
183.222
176.032
168.523
160.73
152.685
144.425
135.985
127.401
118.71
109.948
101.151
92.355
83.594
74.903
66.313
57.855
49.56
41.456
33.567
25.919
18.532
11.427
4.62
-1.874
-8.042
-13.873
-19.362
-24.501
-29.288
-33.722
-37.804
-41.538
-44.929
-47.985
-50.713
-53.125
-55.233
-57.048
-58.585
-59.858
-60.884
-61.677
-62.254
-62.631
-62.826
-62.855
-62.734
-62.479
-62.107
-61.631
-61.068
-60.429
-59.729
-58.979
-58.192
-57.377
-56.545
-55.704
-54.864
-54.03
-53.21
-52.409
-51.632
-50.882
-50.163
-49.478
-48.828
-48.214
-47.638
-47.101
-46.601
-46.14
-45.715
-45.326
-44.971
-44.649
-44.358
-44.095
-43.859
-43.647
-43.459
-43.292
-43.145
-43.016
-42.903
-42.806
-42.723
-42.652
-42.59
-42.537
-42.489
-42.445
-42.404
-42.364
-42.322
-42.276
-42.223
-42.161
-42.088
-41.999
-41.893
-41.764
-41.61
-41.428
-41.216
-40.97
-40.688
-40.369
-40.01
-39.609
-39.166
-38.678
-38.144
-37.562
-36.932
-36.255
-35.53
-34.759
-33.944
-33.089
-32.199
-31.279
-30.336
-29.378
-28.41
-27.444
-26.49
-25.556
-24.652
-23.786
-22.966
-22.205
-21.512
-20.897
-20.367
-19.929
-19.59
-19.36
-19.247
-19.251
-19.368
-19.594
-19.926
-20.368
-20.932
-21.62
-22.435
-23.379
-24.453
-25.662
-27.006
-28.47
-30.02
-31.621
-33.243
-34.868
-36.496
-38.123
-39.729
-41.286
-42.753
-44.093
-45.286
-46.31
-47.116
-47.663
-47.971
-48.12
-48.288
-48.711
-49.548
-50.909
-52.925
-55.685
-59.151
-63.209
-67.526
-71.584
-75.007
-77.463
-78.563
-78.078
-75.942
-72.199
-67.304
-62.025
-57.019
-53.064
-51.221
-52.406
-57.377
-66.82
-80.114
-95.395
-110.913
-124.357
-134.879
-143.809
-151.004
-154.974
-150.209
-127.562
-80.498
-5.701
92.877
206.541
328.663
452.561
574.355
687.871
778.307
828.374
820.578
745.783
611.517
437.486
251.03
79.478
-59.891
-160.789
-224.55
-259.06
-270.782
-262.024
-237.444
-200.802
-159.61
-126.497
-106.732
-101.16
-104.985
-106.865
-102.15
-91.282
-77.151
-66.242
-60.877
-59.518
-60.689
-62.273
-63.126
-63.563
-63.586
-62.842
-61.349
-59.278
-56.662
-53.653
-50.478
-47.206
-44.122
-41.728
-40.179
-39.428
-39.405
-39.866
-40.591
-41.474
-42.307
-42.83
-42.92
-42.502
-41.553
-40.15
-38.341
-36.142
-33.6
-30.759
-27.651
-24.324
-20.814
-17.154
-13.389
-9.55
-5.655
-1.724
2.241
6.239
10.276
14.37
18.544
22.811
27.181
31.659
36.246
40.952
45.783
50.744
55.84
61.069
66.429
71.915
77.521
83.233
89.036
94.909
100.83
106.777
112.729
118.663
124.557
130.385
136.121
141.74
147.216
152.52
157.623
162.497
167.112
171.44
175.454
179.128
182.435
185.353
187.859
189.932
191.554
192.708
193.379
193.557
193.23
192.393
191.041
189.173
186.791
183.899
180.505
176.618
172.252
167.422
162.147
156.448
150.348
143.871
137.046
129.902
122.469
114.78
106.867
98.767
90.513
82.142
73.69
65.192
56.683
48.199
39.774
31.44
23.229
15.172
7.296
-0.37
-7.803
-14.978
-21.876
-28.478
-34.768
-40.73
-46.355
-51.633
-56.557
-61.123
-65.329
-69.175
-72.664
-75.8
-78.59
-81.043
-83.169
-84.978
-86.486
-87.706
-88.654
-89.346
-89.8
-90.034
-90.067
-89.916
-89.602
-89.143
-88.558
-87.864
-87.081
-86.224
-85.312
-84.359
-83.382
-82.395
-81.412
-80.445
-79.506
-78.606
-77.754
-76.959
-76.229
-75.568
-74.984
-74.48
-74.058
-73.723
-73.474
-73.313
-73.238
-73.248
-73.34
-73.512
-73.76
-74.079
-74.464
-74.91
-75.411
-75.961
-76.554
-77.183
-77.842
-78.524
-79.222
-79.929
-80.637
-81.339
-82.028
-82.696
-83.335
-83.939
-84.5
-85.011
-85.465
-85.856
-86.177
-86.423
-86.585
-86.659
-86.639
-86.52
-86.298
-85.969
-85.529
-84.977
-84.311
-83.529
-82.633
-81.621
-80.494
-79.254
-77.901
-76.44
-74.874
-73.207
-71.444
-69.592
-67.66
-65.658
-63.598
-61.491
-59.347
-57.181
-55.008
-52.841
-50.696
-48.583
-46.515
-44.503
-42.563
-40.71
-38.958
-37.318
-35.797
-34.406
-33.157
-32.061
-31.124
-30.346
-29.725
-29.261
-28.961
-28.844
-28.92
-29.195
-29.671
-30.345
-31.218
-32.288
-33.538
-34.935
-36.443
-38.021
-39.634
-41.268
-42.902
-44.514
-46.081
-47.55
-48.865
-49.983
-50.869
-51.505
-51.923
-52.136
-52.14
-52.024
-51.928
-52.059
-52.655
-53.826
-55.497
-57.598
-60.226
-63.437
-67.153
-71.056
-74.55
-77.196
-79.046
-80.271
-80.553
-79.595
-77.397
-74.146
-71.409
-70.855
-72.288
-75.847
-80.862
-85.576
-90.642
-95.884
-101.185
-108.874
-119.608
-132.623
-143.733
-143.218
-120.084
-66.944
15.791
119.673
232.457
344.997
454.384
560.645
660.895
743.188
788.127
777.185
701.921
570.997
407.023
236.66
82.168
-45.282
-145.247
-219.611
-269.63
-294.286
-289.54
-258.157
-209.645
-156.988
-116.211
-93.903
-87.153
-88.498
-86.721
-77.648
-63.93
-49.824
-41.02
-39.184
-42.214
-48.111
-54.61
-60.221
-64.611
-67.343
-68.199
-67.452
-65.429
-62.393
-58.7
-54.783
-51.091
-48.198
-46.451
-45.8
-46.086
-47.068
-48.446
-50.011
-51.538
-52.74
-53.458
-53.648
-53.288
-52.444
-51.182
-49.518
-47.492
-45.15
-42.509
-39.603
-36.469
-33.134
-29.646
-26.046
-22.354
-18.591
-14.769
-10.886
-6.945
-2.937
1.16
5.355
9.654
14.059
18.566
23.178
27.901
32.74
37.698
42.773
47.961
53.258
58.657
64.144
69.705
75.319
80.965
86.62
92.266
97.88
103.442
108.929
114.317
119.581
124.698
129.643
134.39
138.912
143.183
147.179
150.874
154.247
157.275
159.936
162.212
164.085
165.539
166.56
167.137
167.258
166.918
166.111
164.835
163.089
160.877
158.202
155.074
151.502
147.499
143.08
138.263
133.067
127.513
121.627
115.433
108.959
102.232
95.284
88.145
80.846
73.421
65.902
58.322
50.713
43.108
35.539
28.037
20.631
13.351
6.223
-0.727
-7.475
-13.998
-20.276
-26.292
-32.027
-37.469
-42.606
-47.426
-51.923
-56.091
-59.926
-63.427
-66.595
-69.432
-71.944
-74.136
-76.018
-77.598
-78.889
-79.902
-80.652
-81.153
-81.42
-81.471
-81.321
-80.989
-80.491
-79.846
-79.069
-78.179
-77.191
-76.123
-74.99
-73.806
-72.586
-71.344
-70.093
-68.845
-67.61
-66.399
-65.222
-64.087
-63.002
-61.974
-61.008
-60.109
-59.281
-58.528
-57.85
-57.25
-56.728
-56.282
-55.913
-55.617
-55.392
-55.235
-55.142
-55.108
-55.128
-55.199
-55.315
-55.471
-55.662
-55.883
-56.128
-56.392
-56.67
-56.956
-57.245
-57.53
-57.806
-58.069
-58.312
-58.529
-58.716
-58.868
-58.977
-59.04
-59.051
-59.005
-58.896
-58.719
-58.471
-58.149
-57.749
-57.268
-56.706
-56.06
-55.33
-54.515
-53.615
-52.63
-51.56
-50.408
-49.173
-47.86
-46.472
-45.012
-43.488
-41.907
-40.278
-38.608
-36.907
-35.187
-33.458
-31.734
-30.027
-28.345
-26.7
-25.104
-23.569
-22.109
-20.733
-19.448
-18.264
-17.186
-16.227
-15.393
-14.686
-14.101
-13.634
-13.282
-13.053
-12.957
-13.001
-13.188
-13.52
-13.999
-14.63
-15.415
-16.342
-17.377
-18.484
-19.631
-20.801
-21.992
-23.211
-24.448
-25.673
-26.844
-27.916
-28.856
-29.661
-30.295
-30.711
-30.927
-31.012
-31.151
-31.646
-32.733
-34.536
-37.176
-40.699
-45.022
-50.025
-55.308
-60.177
-63.998
-66.247
-66.49
-64.471
-60.209
-53.925
-46.185
-38.657
-33.008
-30.025
-31.067
-35.654
-42.918
-54.476
-69.282
-87.131
-108.379
-129.545
-150.867
-171.288
-185.186
-186.811
-164.591
-109.397
-23.097
86.507
204.227
316.366
421.866
523.01
621.042
711.854
776.274
793.569
752.885
652.918
510.382
349.705
190.058
48.393
-67.741
-156.546
-215.162
-244.641
-246.157
-224.493
-189.196
-149.719
-117.084
-96.018
-84.769
-79.266
-71.48
-58.078
-41.145
-23.85
-11.275
-5.534
-5.245
-8.659
-13.813
-19.457
-25.057
-30.024
-33.708
-35.762
-36.276
-35.502
-33.651
-31.023
-28.005
-25.068
-22.832
-21.6
-21.31
-21.803
-22.812
-24.107
-25.54
-26.892
-27.89
-28.384
-28.323
-27.718
-26.66
-25.206
-23.366
-21.175
-18.668
-15.884
-12.873
-9.678
-6.332
-2.869
0.692
4.332
8.037
11.8
15.625
19.52
23.506
27.593
31.785
36.081
40.477
44.972
49.573
54.282
59.102
64.031
69.065
74.2
79.428
84.741
90.123
95.556
101.017
106.485
111.942
117.368
122.742
128.044
133.249
138.337
143.283
148.066
152.661
157.041
161.183
165.062
168.653
171.936
174.888
177.49
179.721
181.565
183.006
184.03
184.625
184.78
184.489
183.744
182.543
180.884
178.768
176.199
173.183
169.729
165.849
161.555
156.863
151.791
146.36
140.591
134.507
128.133
121.496
114.622
107.541
100.282
92.876
85.352
77.743
70.078
62.388
54.704
47.055
39.469
31.973
24.595
17.359
10.288
3.405
-3.27
-9.718
-15.923
-21.869
-27.545
-32.938
-38.042
-42.848
-47.353
-51.554
-55.45
-59.043
-62.335
-65.331
-68.037
-70.461
-72.611
-74.497
-76.129
-77.52
-78.682
-79.628
-80.372
-80.928
-81.31
-81.531
-81.606
-81.549
-81.374
-81.095
-80.724
-80.273
-79.757
-79.187
-78.573
-77.925
-77.252
-76.561
-75.863
-75.165
-74.471
-73.784
-73.114
-72.471
-71.861
-71.293
-70.764
-70.265
-69.804
-69.393
-69.009
-68.636
-68.26
-67.86
-67.453
-67.072
-66.697
-66.293
-65.949
-65.77
-65.692
-65.72
-65.873
-65.922
-66.479
-68.14
-70.05
-71.951
-72.278
-69.156
-64.656
-60.16
-57.722
-60.165
-64.99
-70.077
-73.972
-74.274
-72.696
-70.973
-69.489
-69.299
-69.787
-70.156
-70.553
-70.873
-71.163
-71.58
-72.011
-72.368
-72.67
-72.919
-73.097
-73.201
-73.232
-73.185
-73.073
-72.906
-72.675
-72.367
-71.981
-71.514
-70.963
-70.325
-69.597
-68.778
-67.866
-66.865
-65.776
-64.602
-63.35
-62.026
-60.637
-59.19
-57.697
-56.168
-54.615
-53.049
-51.481
-49.919
-48.374
-46.859
-45.382
-43.954
-42.582
-41.273
-40.039
-38.889
-37.829
-36.862
-35.981
-35.184
-34.47
-33.844
-33.317
-32.899
-32.594
-32.408
-32.354
-32.441
-32.672
-33.036
-33.497
-34.025
-34.597
-35.205
-35.857
-36.549
-37.262
-37.969
-38.624
-39.187
-39.642
-39.934
-39.992
-39.814
-39.439
-39.006
-38.787
-38.989
-39.761
-41.285
-43.64
-46.759
-50.488
-54.404
-57.875
-60.403
-61.498
-60.655
-57.674
-52.597
-45.69
-37.753
-29.845
-22.919
-18.109
-16.724
-19.773
-27.946
-41.623
-59.699
-79.919
-100.281
-118.231
-132.704
-144.656
-153.236
-156.398
-148.785
-122.023
-71.279
4.583
100.704
208.221
321.09
434.81
546.359
650.263
734.176
781.685
778.01
717.485
605.735
460.229
302.59
149.874
15.36
-96.491
-184.509
-245.159
-277.616
-279.444
-253.123
-209.293
-159.952
-119.596
-95.559
-85.534
-83.322
-78.942
-67.832
-52.086
-35.702
-24.369
-20.323
-21.9
-26.961
-33.185
-39.091
-44.389
-48.774
-51.732
-53.109
-53.05
-51.765
-49.554
-46.799
-43.765
-40.826
-38.536
-37.09
-36.442
-36.482
-36.929
-37.567
-38.285
-38.889
-39.14
-38.924
-38.182
-36.917
-35.225
-33.153
-30.721
-27.973
-24.945
-21.68
-18.227
-14.624
-10.906
-7.1
-3.224
0.707
4.68
8.692
12.743
16.84
21.002
25.239
29.554
33.95
38.426
42.983
47.629
52.37
57.209
62.146
67.178
72.303
77.515
82.806
88.163
93.571
99.009
104.458
109.901
115.321
120.698
126.011
131.239
136.359
141.35
146.189
150.85
155.309
159.54
163.518
167.22
170.623
173.704
176.443
178.818
180.812
182.406
183.587
184.339
184.651
184.513
183.917
182.857
181.332
179.34
176.884
173.969
170.603
166.796
162.56
157.912
152.867
147.448
141.674
135.571
129.164
122.48
115.549
108.399
101.063
93.573
85.961
78.261
70.504
62.725
54.954
47.225
39.568
32.013
24.589
17.323
10.242
3.37
-3.27
-9.657
-15.773
-21.602
-27.128
-32.341
-37.229
-41.787
-46.009
-49.892
-53.436
-56.642
-59.515
-62.06
-64.285
-66.199
-67.814
-69.142
-70.197
-70.994
-71.549
-71.879
-72.001
-71.933
-71.693
-71.3
-70.772
-70.126
-69.381
-68.555
-67.665
-66.727
-65.756
-64.768
-63.777
-62.796
-61.837
-60.911
-60.028
-59.196
-58.424
-57.716
-57.08
-56.518
-56.033
-55.628
-55.302
-55.056
-54.888
-54.795
-54.776
-54.825
-54.939
-55.113
-55.342
-55.62
-55.941
-56.3
-56.691
-57.107
-57.543
-57.993
-58.451
-58.912
-59.372
-59.825
-60.267
-60.694
-61.103
-61.49
-61.854
-62.191
-62.501
-62.781
-63.033
-63.255
-63.448
-63.613
-63.752
-63.865
-63.957
-64.029
-64.085
-64.127
-64.161
-64.189
-64.216
-64.246
-64.283
-64.33
-64.39
-64.469
-64.568
-64.69
-64.838
-65.013
-65.218
-65.454
-65.723
-66.024
-66.358
-66.725
-67.123
-67.553
-68.012
-68.498
-69.008
-69.539
-70.087
-70.649
-71.221
-71.798
-72.373
-72.943
-73.5
-74.04
-74.556
-75.04
-75.485
-75.887
-76.238
-76.532
-76.763
-76.927
-77.018
-77.033
-76.969
-76.822
-76.59
-76.271
-75.864
-75.368
-74.785
-74.114
-73.359
-72.522
-71.609
-70.628
-69.587
-68.496
-67.361
-66.195
-65.007
-63.81
-62.615
-61.433
-60.274
-59.15
-58.074
-57.061
-56.123
-55.269
-54.507
-53.845
-53.291
-52.851
-52.531
-52.327
-52.241
-52.27
-52.422
-52.705
-53.124
-53.68
-54.368
-55.188
-56.133
-57.199
-58.371
-59.62
-60.922
-62.251
-63.581
-64.893
-66.159
-67.357
-68.468
-69.464
-70.317
-71.006
-71.509
-71.821
-71.977
-71.995
-71.87
-71.666
-71.488
-71.479
-71.846
-72.735
-74.171
-76.2
-78.94
-82.315
-86.064
-89.818
-92.995
-95.008
-95.463
-93.94
-89.788
-83.5
-76.757
-70.888
-67.621
-66.268
-62.845
-55.942
-45.806
-36.062
-35.771
-49.344
-77.416
-117.384
-158.729
-192.662
-210.014
-199.961
-158.422
-83.615
19.672
139.885
268.013
396.51
522.031
641.391
743.906
812.86
828.234
777.552
663.459
503.814
326.846
158.613
16.603
-92.9
-171.546
-221.728
-245.357
-243.109
-218.76
-181.571
-142.998
-113.745
-97.396
-89.767
-83.497
-72.241
-55.218
-36.761
-22.401
-15.296
-15.346
-20.166
-26.599
-32.876
-38.073
-41.369
-42.622
-41.823
-39.003
-34.634
-29.286
-23.376
-17.556
-12.582
-8.819
-6.422
-5.372
-5.398
-6.243
-7.678
-9.347
-10.875
-12.039
-12.712
-12.863
-12.545
-11.769
-10.545
-8.917
-6.934
-4.637
-2.056
0.798
3.912
7.249
10.754
14.366
18.04
21.751
25.484
29.235
33.004
36.789
40.604
44.466
48.385
52.369
56.424
60.55
64.753
69.041
73.422
77.905
82.492
87.184
91.977
96.863
101.832
106.87
111.961
117.084
122.222
127.357
132.469
137.539
142.548
147.474
152.293
156.985
161.525
165.888
170.05
173.986
177.672
181.083
184.197
186.99
189.442
191.531
193.24
194.55
195.445
195.911
195.937
195.512
194.629
193.282
191.47
189.192
186.45
183.251
179.602
175.514
171
166.076
160.761
155.073
149.036
142.674
136.012
129.077
121.9
114.509
106.937
99.215
91.376
83.453
75.48
67.489
59.513
51.585
43.737
35.999
28.4
20.969
13.733
6.717
-0.057
-6.565
-12.791
-18.716
-24.326
-29.609
-34.555
-39.157
-43.41
-47.311
-50.86
-54.058
-56.91
-59.422
-61.601
-63.457
-65
-66.244
-67.202
-67.889
-68.321
-68.516
-68.489
-68.26
-67.846
-67.267
-66.541
-65.687
-64.724
-63.669
-62.541
-61.356
-60.133
-58.885
-57.628
-56.376
-55.141
-53.935
-52.767
-51.648
-50.584
-49.583
-48.649
-47.787
-46.999
-46.288
-45.655
-45.098
-44.618
-44.211
-43.876
-43.609
-43.407
-43.265
-43.178
-43.142
-43.151
-43.2
-43.282
-43.393
-43.527
-43.676
-43.837
-44.003
-44.17
-44.331
-44.483
-44.621
-44.742
-44.842
-44.918
-44.968
-44.99
-44.984
-44.947
-44.879
-44.782
-44.655
-44.5
-44.319
-44.112
-43.884
-43.635
-43.369
-43.089
-42.798
-42.498
-42.193
-41.886
-41.58
-41.278
-40.982
-40.697
-40.425
-40.168
-39.93
-39.714
-39.522
-39.356
-39.218
-39.111
-39.036
-38.995
-38.989
-39.019
-39.086
-39.191
-39.335
-39.516
-39.736
-39.994
-40.288
-40.617
-40.98
-41.375
-41.8
-42.253
-42.732
-43.234
-43.758
-44.301
-44.861
-45.434
-46.019
-46.613
-47.212
-47.814
-48.415
-49.012
-49.601
-50.177
-50.739
-51.281
-51.8
-52.291
-52.75
-53.173
-53.555
-53.891
-54.177
-54.408
-54.579
-54.688
-54.73
-54.704
-54.605
-54.433
-54.185
-53.86
-53.456
-52.973
-52.409
-51.764
-51.038
-50.232
-49.346
-48.383
-47.346
-46.241
-45.074
-43.852
-42.582
-41.274
-39.938
-38.584
-37.225
-35.872
-34.534
-33.223
-31.95
-30.728
-29.568
-28.479
-27.469
-26.542
-25.705
-24.965
-24.326
-23.787
-23.342
-22.985
-22.712
-22.526
-22.437
-22.449
-22.564
-22.782
-23.108
-23.547
-24.105
-24.775
-25.532
-26.344
-27.182
-28.031
-28.893
-29.773
-30.665
-31.533
-32.335
-33.041
-33.637
-34.127
-34.476
-34.606
-34.497
-34.22
-33.955
-33.961
-34.425
-35.436
-37.129
-39.681
-43.112
-47.301
-51.849
-56.115
-59.521
-61.436
-61.137
-58.008
-52.3
-45.155
-37.99
-31.755
-25.148
-16.119
-4.725
5.869
8.325
-4.143
-32.538
-72.206
-113.149
-147.2
-172.54
-189.81
-200.866
-201.493
-180.827
-130.272
-45.188
69.062
199.579
336.212
470.954
600.009
718.936
814.463
869.089
865.324
794.64
665.199
497.543
318.281
150.495
7.336
-106.6
-191.162
-245.777
-268.442
-258.179
-220.007
-166.214
-113.328
-76.529
-61.198
-62.845
-70.667
-72.991
-65.96
-52.323
-37.788
-28.473
-25.805
-27.896
-32.591
-37.513
-41.49
-44.341
-45.658
-45.372
-43.778
-41.136
-37.68
-33.69
-29.483
-25.473
-22.241
-20.138
-19.158
-19.169
-19.953
-21.262
-22.883
-24.574
-26.02
-27.025
-27.52
-27.481
-26.954
-25.985
-24.59
-22.803
-20.679
-18.248
-15.536
-12.577
-9.394
-6.032
-2.548
1.019
4.639
8.293
11.976
15.687
19.429
23.216
27.066
30.99
34.997
39.091
43.273
47.55
51.93
56.418
61.021
65.741
70.579
75.531
80.591
85.749
90.991
96.299
101.655
107.039
112.433
117.819
123.175
128.482
133.716
138.857
143.88
148.761
153.476
157.998
162.302
166.361
170.153
173.652
176.835
179.679
182.165
184.271
185.98
187.276
188.144
188.571
188.548
188.066
187.12
185.707
183.825
181.478
178.669
175.407
171.701
167.563
163.01
158.057
152.724
147.034
141.008
134.673
128.055
121.181
114.083
106.79
99.334
91.747
84.062
76.311
68.528
60.744
52.99
45.299
37.699
30.219
22.887
15.728
8.767
2.025
-4.475
-10.717
-16.684
-22.361
-27.737
-32.802
-37.548
-41.971
-46.067
-49.837
-53.28
-56.4
-59.202
-61.693
-63.881
-65.775
-67.388
-68.732
-69.819
-70.666
-71.286
-71.695
-71.911
-71.949
-71.826
-71.56
-71.165
-70.66
-70.058
-69.377
-68.631
-67.833
-66.998
-66.138
-65.264
-64.388
-63.518
-62.664
-61.834
-61.032
-60.266
-59.539
-58.856
-58.217
-57.626
-57.082
-56.586
-56.137
-55.734
-55.375
-55.057
-54.777
-54.533
-54.321
-54.136
-53.976
-53.836
-53.713
-53.603
-53.502
-53.407
-53.315
-53.223
-53.127
-53.026
-52.917
-52.797
-52.667
-52.524
-52.367
-52.197
-52.013
-51.816
-51.606
-51.385
-51.153
-50.913
-50.665
-50.412
-50.157
-49.901
-49.647
-49.397
-49.153
-48.919
-48.697
-48.488
-48.295
-48.119
-47.963
-47.828
-47.715
-47.625
-47.56
-47.519
-47.504
-47.514
-47.55
-47.612
-47.699
-47.812
-47.948
-48.108
-48.291
-48.496
-48.721
-48.965
-49.228
-49.507
-49.801
-50.109
-50.429
-50.759
-51.099
-51.446
-51.8
-52.16
-52.523
-52.89
-53.259
-53.629
-53.999
-54.369
-54.738
-55.105
-55.47
-55.833
-56.193
-56.55
-56.903
-57.252
-57.597
-57.936
-58.269
-58.596
-58.914
-59.222
-59.518
-59.802
-60.07
-60.322
-60.554
-60.766
-60.952
-61.112
-61.242
-61.339
-61.399
-61.418
-61.394
-61.322
-61.199
-61.023
-60.79
-60.496
-60.138
-59.715
-59.223
-58.66
-58.023
-57.31
-56.522
-55.656
-54.715
-53.699
-52.61
-51.451
-50.229
-48.948
-47.617
-46.242
-44.832
-43.397
-41.949
-40.5
-39.06
-37.639
-36.246
-34.894
-33.594
-32.357
-31.189
-30.101
-29.099
-28.193
-27.395
-26.708
-26.131
-25.663
-25.3
-25.047
-24.912
-24.902
-25.019
-25.266
-25.644
-26.159
-26.811
-27.592
-28.474
-29.425
-30.415
-31.425
-32.456
-33.508
-34.567
-35.611
-36.601
-37.505
-38.298
-38.958
-39.44
-39.699
-39.754
-39.692
-39.684
-39.958
-40.693
-42.009
-44.052
-46.934
-50.577
-54.792
-59.244
-63.401
-66.862
-69.307
-70.26
-69.396
-66.724
-62.424
-56.96
-51.08
-45.399
-40.616
-37.803
-37.977
-41.892
-49.956
-62.206
-77.668
-94.341
-110.149
-122.364
-129.887
-133.913
-134.341
-129.82
-115.281
-82.68
-26.631
55.082
159.244
279.596
411.087
546.52
676.524
787.55
858.978
872.779
820.499
704.277
542.958
362.792
186.078
32.389
-90.247
-181.149
-239.094
-266.861
-265.549
-239.273
-198.253
-153.384
-117.854
-97.705
-90.716
-91.012
-88.434
-78.707
-63.841
-47.615
-36.024
-31.313
-31.741
-35.232
-39.436
-43.037
-46.009
-48.205
-49.221
-48.94
-47.506
-45.147
-42.155
-38.855
-35.471
-32.325
-29.94
-28.538
-28.066
-28.409
-29.301
-30.483
-31.812
-33.08
-34.012
-34.471
-34.392
-33.753
-32.631
-31.08
-29.114
-26.778
-24.122
-21.175
-17.988
-14.602
-11.05
-7.383
-3.638
0.162
3.995
7.851
11.731
15.638
19.585
23.592
27.672
31.831
36.074
40.403
44.823
49.345
53.972
58.712
63.566
68.534
73.613
78.801
84.085
89.455
94.892
100.377
105.892
111.42
116.942
122.44
127.893
133.278
138.576
143.764
148.818
153.714
158.426
162.929
167.196
171.205
174.931
178.35
181.44
184.18
186.55
188.532
190.108
191.263
191.984
192.259
192.08
191.439
190.332
188.758
186.718
184.214
181.253
177.845
173.999
169.73
165.054
159.988
154.552
148.769
142.662
136.257
129.58
122.66
115.526
108.21
100.741
93.153
85.477
77.744
69.987
62.238
54.526
46.882
39.334
31.911
24.638
17.542
10.644
3.966
-2.471
-8.652
-14.561
-20.184
-25.511
-30.534
-35.245
-39.641
-43.72
-47.48
-50.923
-54.053
-56.875
-59.395
-61.622
-63.565
-65.235
-66.644
-67.806
-68.733
-69.442
-69.945
-70.26
-70.402
-70.386
-70.228
-69.945
-69.551
-69.062
-68.492
-67.855
-67.166
-66.435
-65.674
-64.896
-64.108
-63.321
-62.541
-61.776
-61.031
-60.312
-59.623
-58.968
-58.348
-57.765
-57.222
-56.717
-56.251
-55.822
-55.43
-55.072
-54.747
-54.451
-54.182
-53.938
-53.715
-53.51
-53.32
-53.142
-52.973
-52.81
-52.65
-52.492
-52.332
-52.169
-52.001
-51.828
-51.649
-51.462
-51.268
-51.067
-50.859
-50.645
-50.424
-50.199
-49.971
-49.74
-49.508
-49.276
-49.046
-48.82
-48.6
-48.386
-48.182
-47.987
-47.805
-47.637
-47.483
-47.346
-47.227
-47.126
-47.046
-46.987
-46.95
-46.935
-46.943
-46.974
-47.027
-47.103
-47.201
-47.321
-47.461
-47.621
-47.801
-48
-48.217
-48.451
-48.701
-48.967
-49.247
-49.542
-49.85
-50.171
-50.505
-50.851
-51.208
-51.577
-51.957
-52.347
-52.747
-53.157
-53.575
-54
-54.432
-54.87
-55.312
-55.757
-56.206
-56.656
-57.106
-57.556
-58.003
-58.447
-58.886
-59.317
-59.738
-60.146
-60.539
-60.915
-61.269
-61.599
-61.901
-62.171
-62.406
-62.601
-62.752
-62.853
-62.9
-62.888
-62.813
-62.67
-62.456
-62.167
-61.799
-61.35
-60.819
-60.203
-59.5
-58.71
-57.831
-56.863
-55.807
-54.664
-53.437
-52.129
-50.745
-49.293
-47.782
-46.219
-44.613
-42.976
-41.318
-39.653
-37.992
-36.347
-34.728
-33.148
-31.621
-30.162
-28.781
-27.489
-26.293
-25.201
-24.224
-23.371
-22.647
-22.047
-21.573
-21.221
-20.997
-20.915
-20.979
-21.188
-21.546
-22.052
-22.709
-23.522
-24.478
-25.549
-26.708
-27.918
-29.156
-30.414
-31.672
-32.918
-34.129
-35.259
-36.281
-37.172
-37.893
-38.433
-38.775
-38.875
-38.78
-38.621
-38.565
-38.89
-39.837
-41.504
-44.035
-47.556
-52.009
-57.216
-62.75
-67.837
-71.772
-74.101
-74.392
-72.242
-67.585
-60.717
-52.259
-44.07
-38.203
-35.421
-36.941
-42.568
-50.828
-62.612
-77.845
-96.383
-119.429
-144.62
-168.011
-184.809
-188.024
-171.944
-133.541
-72.714
9.284
109.909
226.912
361.013
508.231
658.954
798.265
901.149
944.921
916.644
814.525
655.721
466.39
272.147
95.6
-52.381
-167.175
-245.839
-288.815
-294.841
-268.575
-222.073
-169.135
-127.085
-104.397
-98.337
-101.551
-101.253
-90.978
-73.099
-52.692
-37.188
-29.924
-29.217
-32.326
-36.372
-39.963
-42.84
-44.765
-45.418
-44.584
-42.454
-39.471
-35.936
-32.122
-28.35
-24.966
-22.498
-21.238
-21.078
-21.823
-23.201
-24.911
-26.775
-28.579
-30.025
-30.952
-31.306
-31.058
-30.277
-29.033
-27.338
-25.239
-22.791
-20.026
-16.995
-13.748
-10.323
-6.78
-3.164
0.501
4.191
7.896
11.618
15.357
19.126
22.952
26.848
30.825
34.889
39.042
43.292
47.652
52.132
56.74
61.481
66.354
71.359
76.493
81.748
87.111
92.565
98.091
103.671
109.289
114.926
120.564
126.183
131.761
137.276
142.706
148.028
153.214
158.239
163.076
167.697
172.078
176.192
180.014
183.521
186.687
189.492
191.915
193.936
195.538
196.703
197.418
197.672
197.456
196.762
195.587
193.928
191.787
189.169
186.079
182.527
178.525
174.085
169.224
163.962
158.319
152.318
145.982
139.339
132.418
125.246
117.856
110.279
102.547
94.693
86.75
78.751
70.728
62.715
54.743
46.843
39.046
31.379
23.87
16.545
9.428
2.541
-4.097
-10.468
-16.555
-22.346
-27.829
-32.996
-37.838
-42.353
-46.536
-50.388
-53.909
-57.105
-59.979
-62.539
-64.793
-66.752
-68.425
-69.826
-70.967
-71.863
-72.528
-72.978
-73.229
-73.297
-73.198
-72.95
-72.568
-72.068
-71.467
-70.779
-70.02
-69.203
-68.341
-67.447
-66.533
-65.609
-64.685
-63.771
-62.873
-62
-61.156
-60.347
-59.576
-58.847
-58.162
-57.522
-56.927
-56.379
-55.876
-55.418
-55.003
-54.629
-54.295
-53.997
-53.732
-53.498
-53.291
-53.109
-52.946
-52.801
-52.67
-52.55
-52.438
-52.33
-52.224
-52.117
-52.008
-51.892
-51.77
-51.638
-51.495
-51.341
-51.174
-50.995
-50.803
-50.598
-50.381
-50.154
-49.916
-49.669
-49.415
-49.153
-48.887
-48.616
-48.344
-48.07
-47.797
-47.526
-47.259
-46.998
-46.743
-46.497
-46.261
-46.036
-45.824
-45.626
-45.445
-45.281
-45.137
-45.014
-44.914
-44.839
-44.79
-44.768
-44.775
-44.813
-44.88
-44.979
-45.108
-45.269
-45.461
-45.683
-45.936
-46.218
-46.529
-46.868
-47.234
-47.626
-48.042
-48.48
-48.94
-49.419
-49.915
-50.425
-50.946
-51.475
-52.01
-52.546
-53.08
-53.607
-54.121
-54.619
-55.096
-55.544
-55.959
-56.334
-56.663
-56.942
-57.165
-57.327
-57.422
-57.447
-57.398
-57.271
-57.064
-56.773
-56.397
-55.932
-55.378
-54.734
-54.002
-53.181
-52.272
-51.281
-50.212
-49.074
-47.872
-46.615
-45.31
-43.968
-42.601
-41.221
-39.837
-38.461
-37.103
-35.776
-34.495
-33.275
-32.126
-31.057
-30.076
-29.191
-28.416
-27.756
-27.212
-26.785
-26.475
-26.288
-26.239
-26.336
-26.58
-26.976
-27.52
-28.211
-29.049
-30.024
-31.106
-32.274
-33.494
-34.74
-36.002
-37.255
-38.477
-39.651
-40.737
-41.705
-42.537
-43.194
-43.647
-43.908
-43.981
-43.876
-43.681
-43.508
-43.529
-43.998
-45.13
-47.074
-49.913
-53.72
-58.47
-63.936
-69.723
-75.186
-79.557
-82.195
-82.71
-80.796
-76.385
-69.883
-61.912
-53.59
-46.652
-42.774
-43.29
-49.383
-61.03
-76.713
-94.824
-112.782
-128.702
-143.035
-154.986
-162.868
-162.216
-143.76
-100.339
-28.217
71.498
190.624
321.747
459.342
597.375
728.609
838.802
907.298
914.43
850.007
718.845
540.511
343.704
155.172
-6.732
-131.638
-217.221
-266.295
-281.345
-268.185
-237.021
-196.886
-159.406
-133.895
-120.272
-115.716
-113.416
-105.054
-89.469
-69.008
-47.857
-31.398
-21.215
-16.339
-15.23
-16.056
-18.111
-21.28
-25.298
-29.861
-34.367
-38.176
-41.02
-42.73
-43.252
-42.757
-41.463
-39.667
-37.791
-36.256
-35.233
-34.697
-34.578
-34.724
-34.994
-35.285
-35.409
-35.14
-34.371
-33.101
-31.362
-29.239
-26.786
-24.017
-20.985
-17.763
-14.41
-10.99
-7.532
-4.031
-0.489
3.089
6.706
10.357
14.053
17.822
21.681
25.641
29.707
33.88
38.164
42.569
47.105
51.78
56.596
61.553
66.649
71.881
77.246
82.734
88.332
94.023
99.789
105.614
111.48
117.37
123.263
129.138
134.971
140.741
146.423
151.989
157.412
162.664
167.715
172.539
177.106
181.388
185.361
188.996
192.27
195.158
197.641
199.695
201.303
202.447
203.113
203.288
202.963
202.13
200.784
198.923
196.549
193.667
190.282
186.405
182.049
177.228
171.961
166.268
160.173
153.699
146.874
139.727
132.289
124.593
116.671
108.559
100.293
91.906
83.437
74.919
66.39
57.884
49.434
41.075
32.839
24.756
16.856
9.166
1.711
-5.485
-12.4
-19.016
-25.316
-31.286
-36.915
-42.193
-47.114
-51.673
-55.868
-59.699
-63.169
-66.283
-69.046
-71.468
-73.557
-75.327
-76.79
-77.961
-78.855
-79.489
-79.881
-80.048
-80.008
-79.781
-79.386
-78.84
-78.164
-77.376
-76.493
-75.533
-74.513
-73.449
-72.355
-71.245
-70.133
-69.03
-67.947
-66.894
-65.879
-64.909
-63.99
-63.128
-62.327
-61.589
-60.917
-60.312
-59.774
-59.301
-58.894
-58.55
-58.265
-58.037
-57.862
-57.736
-57.655
-57.612
-57.604
-57.625
-57.67
-57.733
-57.811
-57.896
-57.986
-58.075
-58.159
-58.235
-58.3
-58.349
-58.382
-58.395
-58.387
-58.358
-58.305
-58.228
-58.127
-58.004
-57.857
-57.688
-57.499
-57.291
-57.065
-56.825
-56.571
-56.306
-56.032
-55.753
-55.47
-55.186
-54.904
-54.628
-54.359
-54.1
-53.855
-53.626
-53.416
-53.227
-53.061
-52.92
-52.806
-52.721
-52.666
-52.642
-52.65
-52.692
-52.768
-52.879
-53.023
-53.202
-53.413
-53.658
-53.933
-54.239
-54.573
-54.934
-55.319
-55.728
-56.158
-56.607
-57.072
-57.551
-58.041
-58.539
-59.042
-59.546
-60.048
-60.543
-61.027
-61.497
-61.949
-62.379
-62.781
-63.152
-63.487
-63.781
-64.031
-64.229
-64.373
-64.456
-64.476
-64.429
-64.311
-64.12
-63.852
-63.507
-63.083
-62.578
-61.991
-61.321
-60.567
-59.731
-58.813
-57.814
-56.738
-55.588
-54.37
-53.092
-51.761
-50.385
-48.974
-47.539
-46.091
-44.644
-43.209
-41.795
-40.415
-39.078
-37.797
-36.584
-35.449
-34.399
-33.442
-32.583
-31.834
-31.202
-30.687
-30.284
-29.99
-29.799
-29.717
-29.756
-29.922
-30.219
-30.649
-31.218
-31.932
-32.795
-33.795
-34.9
-36.07
-37.272
-38.484
-39.7
-40.918
-42.116
-43.262
-44.309
-45.209
-45.932
-46.46
-46.746
-46.742
-46.467
-45.994
-45.511
-45.309
-45.616
-46.574
-48.336
-50.997
-54.502
-58.743
-63.348
-67.665
-71.12
-73.264
-73.675
-72.028
-68.296
-62.658
-55.6
-48.791
-43.836
-41.27
-42.353
-46.507
-52.748
-63.194
-77.587
-96.257
-119.757
-143.494
-165.199
-182.326
-190.68
-188.204
-168.822
-126.572
-57.947
38.444
156.999
290.957
433.179
575.013
709.397
824.373
903.282
930.413
892.743
788.028
628.983
437.34
239.795
61.333
-83.758
-189.069
-254.246
-284.93
-284.985
-259.903
-218.949
-170.523
-126.342
-95.558
-79.159
-74.751
-74.639
-70.933
-62.36
-50.498
-39.426
-33.743
-33.73
-37.665
-43.643
-49.219
-53.376
-56.07
-56.956
-56.128
-53.982
-50.776
-46.859
-42.712
-38.665
-35.07
-32.429
-30.929
-30.472
-30.913
-31.963
-33.312
-34.777
-36.138
-37.122
-37.6
-37.522
-36.865
-35.701
-34.084
-32.026
-29.573
-26.771
-23.651
-20.259
-16.643
-12.84
-8.91
-4.897
-0.83
3.267
7.383
11.517
15.668
19.851
24.085
28.382
32.752
37.2
41.726
46.339
51.05
55.867
60.799
65.851
71.024
76.319
81.733
87.257
92.881
98.589
104.361
110.18
116.031
121.894
127.752
133.584
139.37
145.086
150.712
156.224
161.594
166.798
171.806
176.593
181.133
185.398
189.363
193.003
196.294
199.213
201.738
203.85
205.529
206.759
207.525
207.814
207.617
206.925
205.734
204.042
201.848
199.156
195.972
192.305
188.166
183.569
178.53
173.067
167.202
160.957
154.357
147.428
140.201
132.704
124.97
117.031
108.921
100.674
92.325
83.908
75.457
67.007
58.591
50.242
41.99
33.868
25.903
18.123
10.553
3.218
-3.861
-10.665
-17.176
-23.38
-29.264
-34.818
-40.033
-44.904
-49.427
-53.601
-57.426
-60.906
-64.044
-66.848
-69.326
-71.488
-73.345
-74.909
-76.195
-77.218
-77.994
-78.538
-78.868
-79.002
-78.956
-78.749
-78.398
-77.921
-77.334
-76.654
-75.896
-75.077
-74.21
-73.309
-72.386
-71.453
-70.52
-69.598
-68.694
-67.816
-66.971
-66.164
-65.398
-64.678
-64.005
-63.382
-62.807
-62.282
-61.805
-61.374
-60.988
-60.642
-60.334
-60.059
-59.815
-59.597
-59.4
-59.22
-59.053
-58.895
-58.742
-58.59
-58.435
-58.275
-58.106
-57.927
-57.736
-57.529
-57.308
-57.069
-56.814
-56.542
-56.254
-55.951
-55.634
-55.304
-54.965
-54.619
-54.269
-53.917
-53.568
-53.224
-52.891
-52.572
-52.272
-51.993
-51.742
-51.521
-51.335
-51.188
-51.083
-51.022
-51.008
-51.045
-51.132
-51.273
-51.467
-51.716
-52.018
-52.374
-52.783
-53.244
-53.755
-54.313
-54.916
-55.56
-56.242
-56.957
-57.7
-58.465
-59.246
-60.039
-60.835
-61.629
-62.412
-63.177
-63.918
-64.625
-65.291
-65.908
-66.467
-66.961
-67.382
-67.725
-67.982
-68.147
-68.215
-68.182
-68.044
-67.797
-67.438
-66.965
-66.376
-65.671
-64.851
-63.916
-62.869
-61.713
-60.456
-59.106
-57.671
-56.161
-54.587
-52.961
-51.297
-49.608
-47.91
-46.215
-44.537
-42.891
-41.291
-39.755
-38.297
-36.927
-35.656
-34.493
-33.45
-32.541
-31.769
-31.135
-30.638
-30.279
-30.064
-30.006
-30.113
-30.382
-30.815
-31.411
-32.169
-33.094
-34.17
-35.367
-36.652
-37.987
-39.346
-40.722
-42.094
-43.448
-44.755
-45.964
-47.044
-47.975
-48.723
-49.272
-49.598
-49.662
-49.513
-49.288
-49.166
-49.405
-50.214
-51.7
-54.009
-57.257
-61.424
-66.36
-71.633
-76.561
-80.556
-83.128
-83.804
-82.29
-78.455
-72.435
-64.945
-57.079
-49.985
-44.956
-43.299
-46.105
-54.312
-67.706
-84.38
-101.992
-117.733
-130.318
-141.253
-150.985
-158.275
-158.017
-139.448
-93.821
-17.112
88.632
213.184
347.133
484.567
620.769
751.679
865.361
941.567
959.088
902.526
772.803
589.002
380.782
179.831
9.11
-122.455
-214.512
-271.58
-298.166
-294.104
-263.385
-214.736
-160.163
-116.86
-93.095
-87.315
-92.441
-95.009
-88.66
-74.926
-58.042
-45.495
-40.377
-41.014
-45.188
-50.046
-53.983
-57.003
-59.006
-59.709
-59.1
-57.316
-54.563
-51.145
-47.429
-43.684
-40.275
-37.737
-36.266
-35.797
-36.205
-37.201
-38.497
-39.924
-41.245
-42.175
-42.58
-42.396
-41.604
-40.286
-38.499
-36.264
-33.634
-30.662
-27.384
-23.853
-20.118
-16.22
-12.215
-8.144
-4.031
0.101
4.243
8.395
12.559
16.752
20.996
25.299
29.67
34.116
38.645
43.279
48.038
52.927
57.948
63.092
68.338
73.669
79.066
84.492
89.919
95.328
100.708
106.071
111.434
116.797
122.147
127.457
132.694
137.855
142.94
147.947
152.898
157.807
162.692
167.605
172.571
177.573
182.571
187.475
192.173
196.591
200.671
204.371
207.662
210.49
212.802
214.557
215.695
216.154
215.863
214.706
212.604
209.54
205.531
200.66
195.05
188.784
181.932
174.568
166.742
158.519
149.966
141.124
132.05
122.812
113.499
104.238
95.137
86.257
77.627
69.237
61.042
53.026
45.181
37.488
29.951
22.574
15.363
8.349
1.563
-4.984
-11.29
-17.379
-23.272
-28.969
-34.457
-39.713
-44.699
-49.389
-53.765
-57.8
-61.479
-64.799
-67.758
-70.375
-72.67
-74.66
-76.356
-77.768
-78.903
-79.773
-80.397
-80.791
-80.977
-80.976
-80.808
-80.497
-80.067
-79.536
-78.922
-78.239
-77.498
-76.711
-75.89
-75.046
-74.191
-73.335
-72.488
-71.661
-70.863
-70.102
-69.384
-68.713
-68.094
-67.528
-67.018
-66.563
-66.165
-65.821
-65.53
-65.291
-65.1
-64.955
-64.852
-64.788
-64.758
-64.758
-64.783
-64.829
-64.891
-64.965
-65.046
-65.129
-65.21
-65.287
-65.356
-65.413
-65.456
-65.484
-65.493
-65.482
-65.451
-65.398
-65.323
-65.226
-65.108
-64.971
-64.816
-64.645
-64.461
-64.266
-64.064
-63.857
-63.649
-63.442
-63.239
-63.044
-62.86
-62.69
-62.535
-62.4
-62.287
-62.197
-62.134
-62.099
-62.094
-62.12
-62.178
-62.268
-62.392
-62.548
-62.734
-62.95
-63.192
-63.458
-63.745
-64.048
-64.364
-64.688
-65.015
-65.338
-65.653
-65.953
-66.232
-66.482
-66.698
-66.873
-67.002
-67.078
-67.095
-67.049
-66.934
-66.746
-66.482
-66.137
-65.707
-65.19
-64.584
-63.888
-63.101
-62.225
-61.26
-60.211
-59.082
-57.88
-56.615
-55.295
-53.93
-52.535
-51.12
-49.701
-48.289
-46.895
-45.531
-44.21
-42.944
-41.744
-40.621
-39.585
-38.647
-37.817
-37.103
-36.509
-36.032
-35.668
-35.416
-35.28
-35.27
-35.393
-35.652
-36.056
-36.613
-37.328
-38.204
-39.227
-40.362
-41.581
-42.856
-44.174
-45.54
-46.941
-48.344
-49.717
-51.01
-52.186
-53.23
-54.087
-54.674
-54.994
-55.098
-55.114
-55.283
-55.77
-56.654
-58.084
-60.198
-62.962
-66.271
-69.855
-73.215
-76.037
-78.141
-79.169
-78.886
-77.33
-74.435
-70.487
-66.255
-62.029
-58.809
-57.971
-59.542
-64.04
-70.645
-77.859
-86.991
-98.028
-111.564
-127.959
-143.29
-156.057
-164.37
-165.314
-157.662
-135.177
-91.542
-22.684
73.483
191.731
325.057
465.303
602.551
728.259
830.12
893.401
904.862
854.004
739.977
574.572
378.611
178.805
0.588
-140.71
-238.686
-295.255
-317.885
-311.516
-283.092
-241.05
-193.87
-154.031
-127.641
-113.884
-108.326
-101.337
-88.732
-72.346
-55.784
-44.833
-41.498
-43.941
-49.867
-56.446
-61.959
-65.921
-67.837
-67.596
-65.446
-61.704
-56.858
-51.419
-45.874
-40.78
-36.723
-34.041
-32.743
-32.667
-33.527
-34.998
-36.8
-38.633
-40.174
-41.225
-41.717
-41.63
-41.014
-39.922
-38.379
-36.431
-34.138
-31.536
-28.655
-25.53
-22.192
-18.689
-15.08
-11.405
-7.684
-3.933
-0.149
3.672
7.537
11.464
15.475
19.582
23.796
28.125
32.58
37.182
41.949
46.892
52.016
57.318
62.781
68.381
74.087
79.858
85.663
91.475
97.28
103.078
108.874
114.675
120.475
126.249
131.978
137.644
143.236
148.747
154.189
159.584
164.967
170.383
175.856
181.385
186.934
192.435
197.801
202.927
207.727
212.139
216.108
219.586
222.524
224.874
226.569
227.536
227.681
226.896
225.101
222.25
218.345
213.437
207.612
200.993
193.688
185.787
177.374
168.514
159.274
149.718
139.917
129.951
119.92
109.948
100.142
90.593
81.354
72.442
63.844
55.519
47.434
39.563
31.894
24.428
17.174
10.146
3.359
-3.169
-9.437
-15.462
-21.258
-26.841
-32.211
-37.355
-42.247
-46.855
-51.145
-55.093
-58.68
-61.9
-64.753
-67.247
-69.399
-71.231
-72.762
-74.004
-74.971
-75.673
-76.126
-76.346
-76.356
-76.177
-75.833
-75.348
-74.745
-74.044
-73.264
-72.422
-71.529
-70.596
-69.634
-68.652
-67.66
-66.669
-65.688
-64.726
-63.791
-62.891
-62.034
-61.223
-60.463
-59.755
-59.102
-58.503
-57.96
-57.47
-57.032
-56.646
-56.308
-56.017
-55.77
-55.564
-55.397
-55.266
-55.166
-55.096
-55.051
-55.027
-55.022
-55.033
-55.056
-55.089
-55.13
-55.175
-55.224
-55.273
-55.322
-55.369
-55.411
-55.446
-55.473
-55.491
-55.498
-55.492
-55.473
-55.438
-55.388
-55.32
-55.234
-55.127
-54.999
-54.846
-54.666
-54.459
-54.219
-53.946
-53.635
-53.284
-52.891
-52.454
-51.969
-51.435
-50.849
-50.21
-49.517
-48.769
-47.965
-47.102
-46.181
-45.201
-44.163
-43.069
-41.919
-40.716
-39.464
-38.169
-36.838
-35.478
-34.095
-32.698
-31.297
-29.903
-28.526
-27.175
-25.86
-24.59
-23.378
-22.237
-21.179
-20.212
-19.345
-18.584
-17.937
-17.414
-17.02
-16.756
-16.619
-16.61
-16.733
-17
-17.42
-17.994
-18.722
-19.603
-20.634
-21.816
-23.136
-24.566
-26.082
-27.651
-29.244
-30.854
-32.455
-34.026
-35.55
-36.988
-38.309
-39.498
-40.515
-41.331
-41.964
-42.424
-42.724
-42.959
-43.237
-43.718
-44.656
-46.255
-48.613
-51.772
-55.779
-60.593
-66.026
-71.739
-77.111
-81.42
-84.211
-85.278
-84.298
-81.169
-76.218
-69.745
-63.341
-59.134
-57.76
-60.112
-65.706
-72.812
-82.168
-93.439
-106.162
-121.632
-138.262
-154.818
-169.646
-175.143
-162.898
-124.657
-53.477
47.429
169.411
303.371
438.769
570.116
691.079
788.455
846.607
847.816
782.509
656.333
486.29
298.774
119.563
-33.984
-151.211
-229.44
-271.936
-281.813
-265.243
-232.029
-190.759
-152.807
-127.42
-115.071
-113.347
-115.123
-111.637
-101.187
-85.427
-68.272
-55.208
-47.82
-44.936
-44.862
-45.561
-46.206
-46.964
-47.92
-48.916
-49.514
-49.464
-48.773
-47.469
-45.709
-43.614
-41.259
-38.961
-37.139
-35.973
-35.481
-35.559
-35.978
-36.586
-37.287
-37.903
-38.219
-38.098
-37.467
-36.338
-34.791
-32.878
-30.628
-28.082
-25.287
-22.294
-19.159
-15.926
-12.629
-9.288
-5.916
-2.52
0.895
4.332
7.796
11.307
14.889
18.557
22.321
26.185
30.156
34.248
38.488
42.892
47.466
52.208
57.104
62.132
67.277
72.512
77.8
83.111
88.423
93.725
99.031
104.355
109.696
115.039
120.352
125.604
130.787
135.897
140.929
145.901
150.823
155.713
160.618
165.559
170.52
175.458
180.282
184.882
189.181
193.121
196.657
199.76
202.378
204.454
205.951
206.807
206.96
206.342
204.839
202.373
198.926
194.519
189.232
183.189
176.475
169.162
161.324
153.013
144.297
135.244
125.898
116.317
106.573
96.755
86.988
77.387
68.01
58.892
50.024
41.363
32.895
24.613
16.5
8.561
0.802
-6.772
-14.129
-21.237
-28.083
-34.667
-41.01
-47.134
-53.038
-58.712
-64.131
-69.259
-74.072
-78.55
-82.668
-86.414
-89.783
-92.775
-95.408
-97.705
-99.682
-101.351
-102.723
-103.804
-104.609
-105.154
-105.457
-105.539
-105.42
-105.12
-104.664
-104.073
-103.367
-102.562
-101.672
-100.707
-99.679
-98.601
-97.481
-96.333
-95.165
-93.988
-92.811
-91.643
-90.493
-89.366
-88.267
-87.201
-86.169
-85.173
-84.216
-83.297
-82.417
-81.575
-80.771
-80.003
-79.271
-78.573
-77.909
-77.276
-76.673
-76.099
-75.551
-75.029
-74.53
-74.053
-73.598
-73.163
-72.747
-72.349
-71.969
-71.607
-71.262
-70.933
-70.62
-70.321
-70.037
-69.767
-69.512
-69.271
-69.045
-68.834
-68.639
-68.459
-68.295
-68.146
-68.01
-67.886
-67.773
-67.669
-67.572
-67.478
-67.385
-67.289
-67.186
-67.072
-66.943
-66.794
-66.621
-66.418
-66.181
-65.905
-65.587
-65.22
-64.801
-64.326
-63.793
-63.199
-62.541
-61.816
-61.024
-60.164
-59.234
-58.234
-57.163
-56.025
-54.821
-53.561
-52.251
-50.899
-49.516
-48.114
-46.706
-45.305
-43.92
-42.558
-41.225
-39.931
-38.687
-37.506
-36.4
-35.375
-34.438
-33.595
-32.853
-32.217
-31.682
-31.237
-30.875
-30.591
-30.396
-30.315
-30.364
-30.554
-30.891
-31.376
-32.017
-32.818
-33.777
-34.879
-36.106
-37.43
-38.839
-40.329
-41.885
-43.486
-45.077
-46.539
-47.808
-48.89
-49.842
-50.801
-51.879
-53.085
-54.459
-56.143
-58.184
-60.498
-62.824
-64.615
-65.42
-65.149
-63.893
-61.759
-58.922
-55.614
-52.242
-49.639
-48.6
-49.358
-51.688
-55.228
-59.714
-65.075
-71.341
-78.317
-85.706
-93.677
-103.01
-113.839
-125.118
-135.383
-142.38
-145.398
-146.207
-144.934
-140.276
-127.846
-99.486
-50.342
22.13
117.108
229.197
355.822
491.862
628.059
752.622
844.472
882.992
855.691
759.564
609.486
430.481
248.493
86.804
-43.398
-139.424
-202.885
-238.95
-249.712
-239.27
-214.744
-183.634
-156.904
-140.356
-132.986
-130.455
-124.238
-109.964
-89.174
-66.12
-47.113
-35.254
-29.98
-29.46
-31.221
-34.258
-38.393
-43.009
-47.443
-50.823
-52.576
-52.827
-51.818
-49.696
-46.738
-43.324
-39.973
-37.338
-35.723
-35.079
-35.242
-35.939
-36.947
-38.106
-39.18
-39.892
-40.09
-39.718
-38.79
-37.413
-35.647
-33.52
-31.079
-28.365
-25.427
-22.322
-19.095
-15.784
-12.418
-9.01
-5.572
-2.116
1.359
4.86
8.401
12.012
15.711
19.501
23.389
27.379
31.489
35.744
40.158
44.729
49.449
54.307
59.297
64.41
69.628
74.919
80.257
85.632
91.051
96.528
102.061
107.631
113.201
118.734
124.211
129.635
135.007
140.317
145.55
150.701
155.787
160.838
165.853
170.781
175.531
180.013
184.166
187.956
191.366
194.373
196.935
199.001
200.528
201.496
201.876
201.625
200.666
198.913
196.332
192.956
188.874
184.172
178.907
173.113
166.822
160.082
152.951
145.485
137.719
129.679
121.409
112.976
104.482
96.033
87.696
79.487
71.383
63.369
55.454
47.655
39.989
32.457
25.061
17.82
10.772
3.957
-2.602
-8.9
-14.953
-20.777
-26.372
-31.718
-36.782
-41.541
-45.981
-50.094
-53.867
-57.286
-60.341
-63.041
-65.406
-67.455
-69.206
-70.668
-71.848
-72.756
-73.406
-73.818
-74.011
-74.003
-73.812
-73.458
-72.962
-72.349
-71.637
-70.842
-69.978
-69.056
-68.09
-67.093
-66.078
-65.055
-64.035
-63.028
-62.045
-61.095
-60.185
-59.321
-58.509
-57.752
-57.053
-56.415
-55.837
-55.319
-54.862
-54.465
-54.125
-53.84
-53.61
-53.43
-53.298
-53.21
-53.164
-53.156
-53.182
-53.239
-53.323
-53.43
-53.559
-53.707
-53.87
-54.048
-54.238
-54.439
-54.65
-54.868
-55.093
-55.322
-55.555
-55.79
-56.027
-56.265
-56.504
-56.743
-56.983
-57.224
-57.465
-57.706
-57.948
-58.19
-58.43
-58.669
-58.905
-59.137
-59.362
-59.58
-59.788
-59.984
-60.166
-60.33
-60.472
-60.59
-60.678
-60.732
-60.748
-60.719
-60.642
-60.512
-60.325
-60.078
-59.765
-59.384
-58.932
-58.405
-57.802
-57.12
-56.356
-55.51
-54.58
-53.568
-52.474
-51.3
-50.05
-48.728
-47.341
-45.896
-44.401
-42.866
-41.302
-39.721
-38.137
-36.563
-35.011
-33.495
-32.025
-30.615
-29.277
-28.022
-26.862
-25.806
-24.863
-24.042
-23.351
-22.791
-22.36
-22.053
-21.867
-21.804
-21.87
-22.072
-22.413
-22.902
-23.544
-24.344
-25.306
-26.418
-27.649
-28.969
-30.355
-31.789
-33.276
-34.81
-36.364
-37.913
-39.416
-40.824
-42.117
-43.242
-44.103
-44.686
-45.032
-45.244
-45.562
-46.191
-47.227
-48.846
-51.252
-54.432
-58.284
-62.525
-66.546
-69.906
-72.347
-73.411
-72.644
-69.939
-65.309
-59.166
-52.53
-46.186
-40.772
-37.356
-37.135
-41.092
-50.071
-64.376
-82.749
-103.276
-124.244
-142.869
-157.51
-168.346
-173.662
-171.867
-159.766
-130.182
-78.906
-3.601
95.634
212.978
343.914
483.481
623.785
755.073
860.744
920.846
919.201
848.938
717.664
545.873
359.673
182.262
29.077
-94.014
-186.145
-247.414
-278.247
-277.632
-250.123
-205.82
-157.025
-118.778
-97.159
-89.538
-89.357
-85.579
-73.878
-56.768
-38.513
-25.484
-20.041
-20.353
-24.223
-29.232
-33.969
-38.251
-41.761
-43.929
-44.528
-43.656
-41.53
-38.459
-34.834
-30.967
-27.291
-24.436
-22.679
-21.991
-22.26
-23.2
-24.522
-26.053
-27.548
-28.703
-29.367
-29.473
-29.002
-28.043
-26.655
-24.857
-22.698
-20.227
-17.474
-14.484
-11.297
-7.942
-4.467
-0.908
2.713
6.375
10.073
13.809
17.588
21.427
25.35
29.37
33.496
37.734
42.088
46.564
51.173
55.922
60.817
65.862
71.056
76.397
81.883
87.503
93.242
99.084
105.008
110.994
117.023
123.074
129.125
135.153
141.134
147.041
152.85
158.532
164.058
169.399
174.525
179.405
184.012
188.315
192.288
195.904
199.136
201.962
204.358
206.305
207.783
208.776
209.27
209.254
208.718
207.656
206.064
203.942
201.292
198.12
194.434
190.246
185.57
180.423
174.824
168.797
162.366
155.557
148.399
140.924
133.163
125.152
116.924
108.517
99.966
91.31
82.586
73.83
65.079
56.368
47.733
39.208
30.824
22.611
14.601
6.818
-0.711
-7.964
-14.92
-21.561
-27.871
-33.838
-39.45
-44.701
-49.584
-54.098
-58.242
-62.019
-65.432
-68.489
-71.198
-73.571
-75.62
-77.358
-78.802
-79.97
-80.878
-81.546
-81.994
-82.242
-82.31
-82.219
-81.99
-81.642
-81.196
-80.672
-80.088
-79.463
-78.814
-78.158
-77.51
-76.884
-76.294
-75.752
-75.268
-74.851
-74.51
-74.25
-74.078
-73.997
-74.01
-74.118
-74.322
-74.621
-75.013
-75.496
-76.065
-76.715
-77.443
-78.241
-79.105
-80.027
-81.002
-82.022
-83.082
-84.173
-85.289
-86.425
-87.574
-88.729
-89.885
-91.038
-92.182
-93.313
-94.427
-95.521
-96.592
-97.636
-98.653
-99.64
-100.597
-101.521
-102.413
-103.273
-104.1
-104.897
-105.663
-106.4
-107.109
-107.792
-108.451
-109.085
-109.698
-110.288
-110.857
-111.404
-111.93
-112.434
-112.915
-113.373
-113.805
-114.209
-114.583
-114.924
-115.228
-115.491
-115.71
-115.878
-115.992
-116.048
-116.042
-115.968
-115.823
-115.603
-115.304
-114.921
-114.452
-113.892
-113.238
-112.488
-111.64
-110.693
-109.648
-108.505
-107.269
-105.945
-104.539
-103.058
-101.511
-99.907
-98.259
-96.578
-94.876
-93.167
-91.462
-89.774
-88.117
-86.507
-84.957
-83.478
-82.084
-80.786
-79.6
-78.537
-77.605
-76.805
-76.139
-75.61
-75.226
-75.003
-74.953
-75.084
-75.402
-75.915
-76.631
-77.55
-78.664
-79.937
-81.334
-82.821
-84.377
-85.995
-87.675
-89.397
-91.129
-92.826
-94.44
-95.941
-97.307
-98.484
-99.424
-100.144
-100.723
-101.342
-102.256
-103.646
-105.634
-108.368
-111.936
-116.293
-121.327
-126.703
-131.918
-136.611
-140.43
-142.961
-143.976
-143.402
-141.291
-138.094
-134.457
-130.912
-128.204
-127.316
-129.152
-134.528
-144.046
-157.175
-172.302
-187.59
-200.593
-210.308
-218.023
-224.598
-229.73
-228.368
-210.372
-166.249
-90.257
14.607
138.31
270.561
403.47
533.723
656.739
761.698
830.828
843.852
789.879
670.694
504.098
317.592
135.248
-22.982
-148.513
-240.547
-298.523
-325.553
-322.648
-294.095
-250.101
-201.694
-162.855
-140.154
-131.55
-131.099
-128.31
-118.732
-104.412
-89.28
-79.276
-76.424
-78.886
-84.435
-90.391
-95.231
-98.641
-100.223
-99.89
-97.87
-94.425
-89.972
-84.95
-79.773
-74.93
-70.971
-68.22
-66.694
-66.25
-66.628
-67.542
-68.742
-69.957
-70.878
-71.313
-71.194
-70.502
-69.284
-67.587
-65.435
-62.864
-59.934
-56.678
-53.126
-49.313
-45.268
-41.037
-36.685
-32.256
-27.779
-23.275
-18.75
-14.203
-9.633
-5.025
-0.36
4.376
9.192
14.094
19.086
24.174
29.37
34.682
40.12
45.688
51.389
57.221
63.181
69.26
75.445
81.719
88.064
94.463
100.896
107.345
113.791
120.212
126.585
132.888
139.096
145.185
151.126
156.894
162.459
167.794
172.872
177.668
182.154
186.306
190.101
193.515
196.528
199.121
201.276
202.976
204.209
204.964
205.232
205.008
204.288
203.071
201.362
199.164
196.487
193.342
189.742
185.703
181.245
176.388
171.156
165.574
159.67
153.473
147.012
140.321
133.433
126.381
119.199
111.922
104.585
97.222
89.867
82.553
75.313
68.178
61.177
54.34
47.693
41.262
35.07
29.136
23.481
18.12
13.068
8.335
3.932
-0.135
-3.861
-7.245
-10.286
-12.988
-15.354
-17.39
-19.107
-20.513
-21.621
-22.443
-22.994
-23.291
-23.348
-23.184
-22.815
-22.262
-21.541
-20.673
-19.676
-18.568
-17.369
-16.096
-14.766
-13.397
-12.005
-10.605
-9.211
-7.837
-6.494
-5.193
-3.946
-2.76
-1.643
-0.602
0.358
1.234
2.022
2.721
3.33
3.849
4.279
4.624
4.884
5.065
5.169
5.202
5.168
5.074
4.924
4.726
4.486
4.211
3.906
3.579
3.237
2.886
2.532
2.181
1.839
1.513
1.205
0.922
0.668
0.446
0.26
0.113
0.006
-0.058
-0.078
-0.054
0.014
0.127
0.283
0.482
0.721
1
1.317
1.67
2.056
2.473
2.919
3.391
3.887
4.404
4.938
5.487
6.049
6.62
7.199
7.782
8.368
8.955
9.543
10.129
10.715
11.299
11.882
12.464
13.047
13.633
14.223
14.82
15.427
16.048
16.686
17.347
18.035
18.752
19.504
20.294
21.127
22.007
22.937
23.92
24.96
26.06
27.223
28.454
29.752
31.121
32.559
34.067
35.645
37.29
38.997
40.76
42.573
44.427
46.315
48.226
50.147
52.068
53.978
55.868
57.729
59.549
61.317
63.024
64.66
66.217
67.686
69.058
70.325
71.486
72.547
73.511
74.382
75.156
75.822
76.373
76.803
77.105
77.27
77.292
77.168
76.911
76.561
76.146
75.696
75.224
74.718
74.188
73.664
73.174
72.765
72.48
72.328
72.358
72.665
73.243
74.035
74.907
75.577
75.832
75.572
74.625
72.811
70.159
66.788
63.008
59.439
56.547
54.609
54.053
55.273
58.341
63.187
69.415
76.099
82.425
87.717
90.997
91.13
87.22
78.554
64.684
46.736
27.029
7.799
-8.068
-19.668
-28.787
-35.484
-38.123
-30.211
-1.242
55.664
143.767
258.18
389.4
531.457
676.616
818.582
947.55
1042.379
1082.759
1052.812
947.599
783.591
587.031
386.224
206.811
60.254
-49.945
-123.232
-163.405
-171.967
-153.539
-117.972
-75.423
-38.299
-12.882
2.045
10.156
18.76
30.598
43.019
52.85
55.664
50.141
38.675
24.207
9.903
-1.95
-10.377
-15.169
-16.535
-14.894
-11.024
-5.877
-0.18
5.15
9.208
11.81
12.239
10.008
6.272
1.599
-2.203
-2.898
-2.063
-0.779
-0.902
-5.134
-11.104
-16.758
-20.665
-20.528
-18.058
-14.984
-11.72
-9.309
-7.151
-4.511
-1.586
1.66
5.106
8.551
12.077
15.746
19.526
23.404
27.386
31.482
35.703
40.058
44.544
49.147
53.877
58.75
63.775
68.962
74.321
79.853
85.557
91.432
97.469
103.656
109.979
116.42
122.958
129.572
136.242
142.948
149.665
156.372
163.042
169.648
176.166
182.566
188.82
194.897
200.766
206.399
211.764
216.833
221.576
225.966
229.975
233.579
236.752
239.474
241.722
243.477
244.725
245.449
245.64
245.289
244.388
242.936
240.934
238.383
235.291
231.666
227.521
222.871
217.732
212.125
206.073
199.6
192.733
185.5
177.933
170.063
161.926
153.555
144.985
136.255
127.398
118.453
109.454
100.438
91.439
82.491
73.627
64.878
56.273
47.841
39.607
31.595
23.827
16.321
9.094
2.16
-4.471
-10.79
-16.791
-22.47
-27.828
-32.866
-37.587
-41.999
-46.111
-49.932
-53.475
-56.755
-59.789
-62.593
-65.187
-67.589
-69.821
-71.903
-73.858
-75.706
-77.471
-79.173
-80.835
-82.477
-84.119
-85.782
-87.485
-89.244
-91.078
-92.999
-95.024
-97.163
-99.429
-101.829
-104.371
-107.063
-109.907
-112.907
-116.065
-119.379
-122.848
-126.47
-130.239
-134.149
-138.195
-142.367
-146.658
-151.057
-155.553
-160.136
-164.793
-169.514
-174.285
-179.094
-183.929
-188.777
-193.625
-198.462
-203.276
-208.056
-212.791
-217.47
-222.085
-226.626
-231.085
-235.455
-239.729
-243.902
-247.969
-251.925
-255.768
-259.493
-263.1
-266.587
-269.953
-273.197
-276.319
-279.322
-282.204
-284.969
-287.617
-290.152
-292.576
-294.89
-297.098
-299.203
-301.206
-303.109
-304.916
-306.626
-308.241
-309.762
-311.191
-312.527
-313.77
-314.921
-315.977
-316.937
-317.8
-318.564
-319.224
-319.778
-320.223
-320.555
-320.771
-320.869
-320.845
-320.695
-320.419
-320.013
-319.475
-318.802
-317.992
-317.044
-315.957
-314.731
-313.367
-311.866
-310.232
-308.47
-306.586
-304.589
-302.487
-300.29
-298.008
-295.656
-293.246
-290.792
-288.308
-285.807
-283.301
-280.807
-278.34
-275.912
-273.536
-271.223
-268.985
-266.835
-264.785
-262.842
-261.006
-259.277
-257.656
-256.149
-254.772
-253.534
-252.441
-251.5
-250.717
-250.099
-249.652
-249.367
-249.212
-249.15
-249.149
-249.185
-249.252
-249.352
-249.467
-249.57
-249.621
-249.572
-249.391
-249.056
-248.51
-247.698
-246.634
-245.392
-244.16
-243.217
-242.786
-243.041
-244.174
-246.289
-249.338
-253.167
-257.367
-261.334
-264.556
-266.504
-266.639
-264.691
-260.628
-254.659
-247.478
-239.961
-233.016
-227.85
-225.661
-227.44
-233.997
-245.523
-261.617
-281.077
-301.366
-319.298
-331.421
-335.749
-332.651
-322.807
-306.214
-279.215
-235.253
-168.434
-74.69
44.326
183.424
336.157
491.917
637.657
756.448
826.707
831.709
765.479
633.098
454.884
257.682
63.913
-106.352
-242.445
-341.391
-399.903
-419.721
-405.106
-363.349
-308.067
-253.943
-213.279
-190.618
-182.242
-179.429
-172.574
-158.746
-140.469
-122.747
-111.197
-107.024
-108.248
-112.382
-116.558
-119.2
-119.913
-118.329
-114.537
-108.953
-101.975
-94.091
-85.822
-77.68
-70.194
-63.894
-59.046
-55.586
-53.312
-51.937
-51.139
-50.627
-50.117
-49.304
-48.01
-46.183
-43.813
-40.941
-37.617
-33.864
-29.722
-25.246
-20.471
-15.422
-10.139
-4.654
0.976
6.684
12.422
18.16
23.875
29.561
35.219
40.85
46.469
52.098
57.752
63.44
69.17
74.945
80.774
86.668
92.637
98.691
104.834
111.068
117.392
123.8
130.282
136.827
143.416
150.03
156.651
163.261
169.841
176.371
182.831
189.198
195.451
201.566
207.519
213.284
218.836
224.146
229.19
233.942
238.377
242.471
246.2
249.543
252.479
254.99
257.058
258.667
259.806
260.463
260.629
260.299
259.469
258.14
256.313
253.993
251.188
247.909
244.17
239.985
235.373
230.354
224.951
219.187
213.091
206.688
200.009
193.085
185.948
178.631
171.169
163.594
155.941
148.246
140.54
132.859
125.234
117.696
110.277
103.005
95.906
89.008
82.334
75.905
69.74
63.859
58.274
52.999
48.044
43.418
39.124
35.167
31.548
28.265
25.316
22.694
20.393
18.404
16.716
15.319
14.197
13.338
12.726
12.344
12.177
12.206
12.413
12.782
13.294
13.932
14.678
15.514
16.424
17.391
18.401
19.438
20.488
21.538
22.577
23.592
24.575
25.516
26.408
27.244
28.018
28.726
29.364
29.931
30.424
30.842
31.187
31.458
31.658
31.789
31.853
31.854
31.795
31.679
31.512
31.295
31.035
30.734
30.396
30.026
29.626
29.202
28.756
28.291
27.811
27.318
26.814
26.303
25.785
25.263
24.737
24.21
23.682
23.154
22.628
22.102
21.578
21.056
20.536
20.018
19.501
18.985
18.47
17.957
17.445
16.934
16.427
15.925
15.429
14.942
14.465
14.002
13.556
13.129
12.726
12.35
12.006
11.698
11.43
11.209
11.037
10.921
10.865
10.873
10.947
11.093
11.314
11.613
11.992
12.453
12.999
13.633
14.355
15.165
16.063
17.048
18.117
19.268
20.494
21.789
23.143
24.548
25.992
27.463
28.948
30.432
31.902
33.345
34.751
36.107
37.401
38.621
39.754
40.789
41.719
42.53
43.214
43.763
44.174
44.451
44.599
44.619
44.506
44.248
43.83
43.248
42.493
41.558
40.44
39.139
37.672
36.083
34.406
32.675
30.91
29.107
27.284
25.471
23.701
22.035
20.525
19.198
18.11
17.319
16.792
16.457
16.176
15.701
14.866
13.54
11.547
8.822
5.485
1.717
-2.167
-5.762
-8.868
-11.242
-12.521
-12.66
-11.784
-10.02
-7.707
-5.152
-3.059
-3.017
-6.464
-13.651
-22.287
-28.738
-30.741
-28.828
-28.35
-35.052
-51.644
-77.917
-106.924
-130.047
-139.23
-124.225
-80.204
-6.618
94.683
213.875
342.117
474.91
606.334
733.282
848.171
932.834
968.8
939.935
839.771
680.893
486.583
284.747
102.087
-46.819
-156.339
-226.421
-262.931
-269.796
-251.385
-215.744
-170.004
-124.808
-90.279
-69.104
-60.802
-59.226
-55.898
-48.37
-37.131
-25.456
-18.392
-16.807
-19.235
-23.96
-28.369
-31.31
-32.83
-32.645
-30.923
-28.131
-24.54
-20.497
-16.457
-12.701
-9.516
-7.358
-6.395
-6.512
-7.544
-9.187
-11.116
-13.148
-15.074
-16.624
-17.668
-18.146
-18.033
-17.401
-16.311
-14.779
-12.85
-10.573
-7.979
-5.12
-2.048
1.195
4.548
7.966
11.424
14.895
18.372
21.855
25.346
28.863
32.431
36.065
39.776
43.571
47.454
51.435
55.526
59.738
64.08
68.557
73.171
77.924
82.811
87.826
92.956
98.185
103.494
108.866
114.282
119.725
125.176
130.614
136.017
141.363
146.628
151.79
156.819
161.691
166.376
170.847
175.078
179.042
182.711
186.061
189.067
191.706
193.956
195.797
197.209
198.175
198.682
198.715
198.264
197.322
195.884
193.946
191.508
188.575
185.151
181.245
176.868
172.034
166.758
161.06
154.959
148.478
141.641
134.476
127.01
119.273
111.296
103.112
94.753
86.253
77.646
68.966
60.247
51.523
42.825
34.188
25.641
17.215
8.94
0.842
-7.052
-14.72
-22.139
-29.29
-36.155
-42.719
-48.97
-54.896
-60.489
-65.744
-70.656
-75.223
-79.446
-83.327
-86.87
-90.081
-92.967
-95.537
-97.803
-99.774
-101.465
-102.889
-104.06
-104.994
-105.707
-106.214
-106.533
-106.679
-106.671
-106.524
-106.255
-105.88
-105.414
-104.873
-104.271
-103.62
-102.935
-102.225
-101.502
-100.777
-100.056
-99.348
-98.66
-97.997
-97.364
-96.765
-96.202
-95.678
-95.195
-94.752
-94.351
-93.992
-93.673
-93.394
-93.152
-92.948
-92.777
-92.64
-92.533
-92.453
-92.4
-92.369
-92.36
-92.37
-92.397
-92.437
-92.49
-92.553
-92.625
-92.705
-92.79
-92.88
-92.974
-93.071
-93.172
-93.276
-93.384
-93.494
-93.608
-93.727
-93.848
-93.974
-94.102
-94.232
-94.364
-94.497
-94.629
-94.759
-94.885
-95.004
-95.114
-95.212
-95.294
-95.356
-95.395
-95.406
-95.385
-95.329
-95.234
-95.096
-94.911
-94.676
-94.387
-94.043
-93.638
-93.17
-92.636
-92.033
-91.361
-90.618
-89.804
-88.919
-87.965
-86.948
-85.872
-84.743
-83.566
-82.35
-81.104
-79.839
-78.565
-77.291
-76.026
-74.779
-73.564
-72.391
-71.27
-70.209
-69.216
-68.298
-67.467
-66.731
-66.093
-65.549
-65.098
-64.738
-64.473
-64.317
-64.276
-64.354
-64.554
-64.884
-65.35
-65.957
-66.694
-67.533
-68.44
-69.39
-70.363
-71.36
-72.377
-73.396
-74.39
-75.322
-76.154
-76.854
-77.407
-77.772
-77.912
-77.854
-77.677
-77.549
-77.721
-78.395
-79.692
-81.722
-84.551
-88.104
-92.236
-96.607
-100.647
-103.834
-105.781
-106.227
-104.947
-101.801
-96.941
-90.774
-84.658
-80.8
-80.069
-82.55
-87.132
-90.777
-93.785
-98.675
-107.916
-125.382
-150.451
-178.537
-205.312
-224.648
-230.157
-216.032
-175.902
-106.157
-9.804
104.572
226.71
348.595
467.549
583.778
692.94
781.892
830.91
820.484
741.635
602.682
425.545
238.262
66.027
-76.921
-184.86
-257.55
-297.959
-306.957
-288.76
-251.985
-206.778
-167.462
-142.305
-130.914
-128.745
-125.567
-115.543
-100.045
-82.927
-70.434
-65.503
-66.85
-72.055
-78.139
-83.457
-87.336
-89.187
-88.971
-86.793
-82.917
-77.934
-72.288
-66.34
-60.705
-55.995
-52.555
-50.505
-49.708
-49.87
-50.748
-52.105
-53.612
-54.934
-55.847
-56.237
-56.095
-55.463
-54.362
-52.811
-50.849
-48.531
-45.904
-42.999
-39.832
-36.425
-32.815
-29.058
-25.212
-21.318
-17.399
-13.464
-9.516
-5.554
-1.573
2.443
6.516
10.661
14.887
19.205
23.617
28.136
32.775
37.542
42.448
47.498
52.694
58.032
63.51
69.116
74.839
80.664
86.571
92.544
98.566
104.618
110.681
116.734
122.754
128.719
134.604
140.384
146.032
151.52
156.82
161.906
166.75
171.325
175.605
179.565
183.18
186.428
189.288
191.74
193.764
195.346
196.471
197.127
197.307
197.001
196.208
194.925
193.155
190.901
188.171
184.974
181.323
177.232
172.718
167.801
162.503
156.848
150.86
144.568
138.001
131.189
124.164
116.96
109.608
102.142
94.597
87.005
79.4
71.814
64.279
56.827
49.486
42.286
35.254
28.414
21.792
15.408
9.282
3.431
-2.128
-7.383
-12.322
-16.938
-21.223
-25.172
-28.784
-32.057
-34.995
-37.6
-39.877
-41.835
-43.482
-44.829
-45.886
-46.667
-47.185
-47.455
-47.492
-47.312
-46.929
-46.361
-45.623
-44.732
-43.705
-42.556
-41.301
-39.957
-38.537
-37.056
-35.526
-33.96
-32.371
-30.768
-29.163
-27.564
-25.979
-24.417
-22.884
-21.385
-19.927
-18.511
-17.143
-15.824
-14.555
-13.338
-12.171
-11.056
-9.991
-8.975
-8.006
-7.084
-6.205
-5.369
-4.573
-3.815
-3.093
-2.403
-1.745
-1.116
-0.514
0.063
0.617
1.148
1.659
2.151
2.625
3.082
3.523
3.949
4.363
4.764
5.155
5.535
5.906
6.268
6.621
6.966
7.303
7.632
7.954
8.269
8.577
8.881
9.181
9.479
9.776
10.075
10.376
10.682
10.995
11.317
11.651
12
12.366
12.754
13.167
13.607
14.078
14.583
15.122
15.699
16.315
16.97
17.665
18.401
19.177
19.993
20.849
21.744
22.677
23.644
24.643
25.67
26.72
27.786
28.859
29.931
30.993
32.034
33.043
34.008
34.915
35.753
36.511
37.18
37.749
38.205
38.538
38.739
38.799
38.713
38.472
38.069
37.496
36.752
35.845
34.78
33.561
32.186
30.642
28.923
27.025
24.95
22.695
20.261
17.651
14.881
11.991
9.026
6.027
3.021
0.016
-2.979
-5.943
-8.839
-11.609
-14.198
-16.565
-18.687
-20.526
-22.05
-23.28
-24.3
-25.291
-26.502
-28.152
-30.392
-33.312
-36.964
-41.269
-46.083
-51.171
-56.1
-60.426
-63.729
-65.681
-66.119
-65.139
-62.912
-59.676
-56.028
-52.715
-50.627
-50.8
-54.077
-60.939
-71.87
-86.462
-102.702
-118.236
-130.309
-137.975
-143.299
-147.381
-148.997
-141.586
-114.12
-58.617
27.865
139.464
264.892
396.087
526.417
652.184
767.17
854.474
894.281
869.006
771.576
615.22
424.794
228.68
52.17
-93.066
-202.88
-275.682
-313.876
-317.052
-288.583
-239.726
-182.434
-132.22
-100.059
-85.625
-84.272
-86.016
-81.777
-70.811
-55.754
-41.798
-34.181
-33.158
-36.792
-42.939
-49.028
-54.016
-57.794
-59.875
-60.219
-59.114
-56.739
-53.403
-49.568
-45.564
-41.792
-38.845
-36.978
-36.145
-36.231
-36.963
-38.048
-39.324
-40.567
-41.487
-41.942
-41.874
-41.265
-40.198
-38.735
-36.889
-34.708
-32.241
-29.521
-26.597
-23.509
-20.289
-16.986
-13.641
-10.277
-6.918
-3.573
-0.241
3.078
6.4
9.744
13.122
16.542
20.011
23.532
27.113
30.765
34.498
38.321
42.24
46.26
50.383
54.609
58.933
63.348
67.841
72.398
77.007
81.654
86.327
91.01
95.687
100.341
104.955
109.509
113.983
118.356
122.602
126.7
130.624
134.351
137.858
141.121
144.118
146.825
149.221
151.287
153.002
154.348
155.308
155.868
156.013
155.732
155.015
153.856
152.25
150.192
147.685
144.729
141.33
137.494
133.232
128.555
123.477
118.015
112.188
106.015
99.519
92.726
85.662
78.354
70.833
63.127
55.269
47.29
39.222
31.098
22.95
14.81
6.71
-1.32
-9.248
-17.046
-24.685
-32.138
-39.381
-46.389
-53.14
-59.615
-65.796
-71.666
-77.211
-82.42
-87.283
-91.792
-95.942
-99.729
-103.152
-106.213
-108.913
-111.259
-113.256
-114.912
-116.239
-117.247
-117.95
-118.36
-118.494
-118.367
-117.996
-117.398
-116.591
-115.593
-114.422
-113.097
-111.635
-110.056
-108.375
-106.612
-104.782
-102.902
-100.987
-99.051
-97.11
-95.176
-93.26
-91.375
-89.531
-87.737
-86.002
-84.333
-82.735
-81.216
-79.779
-78.427
-77.165
-75.992
-74.912
-73.923
-73.027
-72.222
-71.509
-70.884
-70.348
-69.897
-69.531
-69.246
-69.041
-68.914
-68.861
-68.882
-68.974
-69.135
-69.363
-69.658
-70.017
-70.439
-70.923
-71.468
-72.072
-72.735
-73.455
-74.232
-75.064
-75.95
-76.891
-77.884
-78.93
-80.027
-81.174
-82.37
-83.613
-84.902
-86.234
-87.606
-89.016
-90.458
-91.93
-93.427
-94.944
-96.476
-98.016
-99.559
-101.097
-102.622
-104.128
-105.605
-107.044
-108.438
-109.776
-111.052
-112.257
-113.382
-114.42
-115.363
-116.204
-116.936
-117.553
-118.048
-118.416
-118.651
-118.751
-118.712
-118.534
-118.216
-117.76
-117.169
-116.449
-115.606
-114.646
-113.581
-112.419
-111.174
-109.858
-108.482
-107.06
-105.605
-104.132
-102.656
-101.192
-99.752
-98.351
-97.001
-95.715
-94.509
-93.389
-92.357
-91.417
-90.571
-89.827
-89.201
-88.705
-88.343
-88.127
-88.062
-88.153
-88.407
-88.813
-89.345
-89.971
-90.664
-91.406
-92.196
-93.032
-93.898
-94.765
-95.589
-96.334
-96.97
-97.472
-97.806
-97.927
-97.859
-97.696
-97.6
-97.802
-98.487
-99.772
-101.779
-104.628
-108.267
-112.558
-117.253
-121.851
-125.955
-129.251
-131.329
-131.941
-130.99
-128.344
-124.254
-119.342
-114.643
-111.946
-112.182
-115.482
-120.861
-125.811
-130.317
-135.903
-144.752
-160.143
-181.326
-205.076
-226.786
-239.446
-236.94
-212.317
-160.852
-82.872
18.45
134.072
256.269
383.189
512.057
640.823
760.661
849.428
884.829
849.661
738.891
570.131
371.468
172.124
-2.217
-141.362
-243.585
-309.333
-342.345
-342.39
-312.999
-264.606
-209.54
-164.251
-137.25
-126.773
-126.507
-124.697
-115.722
-101.554
-86.086
-75.655
-72.805
-75.624
-81.503
-87.314
-91.063
-92.203
-90.728
-86.999
-81.449
-74.585
-67.006
-59.23
-51.914
-45.744
-41.02
-37.831
-36.076
-35.429
-35.592
-36.281
-37.111
-37.721
-37.894
-37.507
-36.534
-35.024
-32.991
-30.449
-27.45
-24.04
-20.267
-16.167
-11.759
-7.074
-2.162
2.911
8.068
13.255
18.441
23.605
28.738
33.839
38.909
43.959
49.012
54.081
59.178
64.309
69.479
74.696
79.976
85.33
90.769
96.303
101.935
107.665
113.489
119.402
125.393
131.447
137.55
143.684
149.834
155.986
162.123
168.226
174.277
180.255
186.14
191.91
197.542
203.01
208.291
213.358
218.189
222.759
227.042
231.017
234.659
237.948
240.863
243.385
245.496
247.18
248.421
249.209
249.532
249.383
248.756
247.647
246.056
243.985
241.439
238.424
234.95
231.029
226.675
221.904
216.734
211.187
205.283
199.048
192.506
185.685
178.613
171.32
163.836
156.192
148.418
140.546
132.607
124.632
116.651
108.693
100.788
92.963
85.244
77.657
70.225
62.97
55.912
49.07
42.458
36.093
29.985
24.144
18.579
13.294
8.294
3.581
-0.846
-4.989
-8.851
-12.438
-15.757
-18.816
-21.625
-24.195
-26.538
-28.667
-30.595
-32.337
-33.907
-35.32
-36.591
-37.736
-38.769
-39.705
-40.56
-41.345
-42.077
-42.767
-43.427
-44.07
-44.706
-45.345
-45.995
-46.664
-47.36
-48.089
-48.854
-49.661
-50.512
-51.41
-52.356
-53.35
-54.392
-55.481
-56.615
-57.791
-59.006
-60.256
-61.537
-62.844
-64.174
-65.522
-66.882
-68.25
-69.62
-70.989
-72.351
-73.703
-75.039
-76.357
-77.652
-78.922
-80.163
-81.374
-82.551
-83.693
-84.799
-85.867
-86.895
-87.884
-88.832
-89.738
-90.604
-91.428
-92.213
-92.957
-93.664
-94.332
-94.965
-95.562
-96.126
-96.657
-97.156
-97.622
-98.058
-98.462
-98.837
-99.18
-99.491
-99.771
-100.016
-100.227
-100.4
-100.534
-100.624
-100.67
-100.666
-100.611
-100.503
-100.339
-100.115
-99.831
-99.483
-99.071
-98.592
-98.045
-97.427
-96.739
-95.98
-95.15
-94.251
-93.285
-92.254
-91.166
-90.024
-88.836
-87.61
-86.355
-85.081
-83.799
-82.521
-81.256
-80.018
-78.817
-77.665
-76.576
-75.56
-74.627
-73.786
-73.047
-72.418
-71.91
-71.528
-71.268
-71.131
-71.113
-71.218
-71.454
-71.828
-72.34
-72.996
-73.797
-74.746
-75.846
-77.088
-78.445
-79.885
-81.379
-82.903
-84.454
-86.031
-87.619
-89.192
-90.71
-92.136
-93.438
-94.598
-95.576
-96.314
-96.821
-97.18
-97.55
-98.19
-99.321
-101.075
-103.617
-107.119
-111.547
-116.754
-122.452
-128.03
-132.956
-136.859
-139.209
-139.547
-137.826
-134.14
-128.834
-122.825
-116.987
-112.148
-109.492
-110.188
-114.994
-124.454
-138.895
-157.196
-176.922
-195.386
-209.307
-217.58
-222.28
-224.452
-223.043
-211.693
-179.516
-118.722
-26.082
92.749
226.953
369.093
511.355
648.347
771.883
862.339
899.574
867.266
759.676
593.075
394.649
193.537
15.76
-128.167
-236.467
-309.453
-350.68
-359.6
-338.612
-297.077
-246.266
-201.589
-172.089
-157.116
-151.416
-144.324
-130.242
-110.798
-90.068
-74.762
-67.88
-67.783
-71.887
-77.054
-81.325
-84.258
-85.51
-84.697
-81.753
-76.919
-70.648
-63.476
-55.96
-48.562
-41.761
-36.125
-31.886
-28.981
-27.239
-26.353
-26.013
-25.974
-25.962
-25.683
-24.984
-23.816
-22.169
-20.11
-17.689
-14.935
-11.901
-8.644
-5.205
-1.618
2.077
5.847
9.639
13.395
17.074
20.65
24.105
27.441
30.657
33.762
36.774
39.714
42.6
45.444
48.258
51.05
53.835
56.629
59.446
62.3
65.203
68.161
71.179
74.26
77.398
80.589
83.822
87.086
90.369
93.662
96.95
100.223
103.465
106.66
109.793
112.846
115.799
118.632
121.324
123.852
126.196
128.332
130.239
131.897
133.284
134.381
135.17
135.632
135.752
135.516
134.909
133.922
132.546
130.773
128.601
126.027
123.052
119.679
115.916
111.77
107.254
102.381
97.166
91.628
85.788
79.667
73.29
66.681
59.869
52.882
45.751
38.505
31.178
23.8
16.404
9.023
1.689
-5.567
-12.714
-19.722
-26.563
-33.208
-39.633
-45.812
-51.723
-57.347
-62.663
-67.658
-72.317
-76.628
-80.584
-84.177
-87.403
-90.262
-92.752
-94.878
-96.642
-98.053
-99.117
-99.846
-100.25
-100.342
-100.138
-99.651
-98.9
-97.9
-96.67
-95.228
-93.593
-91.783
-89.819
-87.717
-85.497
-83.177
-80.775
-78.307
-75.79
-73.239
-70.668
-68.092
-65.521
-62.968
-60.441
-57.95
-55.503
-53.105
-50.762
-48.478
-46.256
-44.099
-42.008
-39.985
-38.028
-36.136
-34.31
-32.546
-30.841
-29.195
-27.602
-26.06
-24.566
-23.116
-21.707
-20.335
-18.996
-17.688
-16.408
-15.152
-13.918
-12.704
-11.507
-10.328
-9.164
-8.015
-6.881
-5.761
-4.657
-3.569
-2.497
-1.444
-0.409
0.605
1.598
2.568
3.512
4.431
5.322
6.183
7.015
7.817
8.586
9.325
10.033
10.711
11.36
11.982
12.579
13.153
13.706
14.241
14.763
15.275
15.781
16.287
16.797
17.318
17.855
18.413
18.998
19.615
20.271
20.969
21.715
22.514
23.368
24.282
25.261
26.306
27.42
28.604
29.859
31.184
32.577
34.034
35.551
37.12
38.734
40.385
42.065
43.762
45.464
47.16
48.838
50.489
52.101
53.663
55.158
56.574
57.903
59.134
60.259
61.266
62.143
62.882
63.486
63.953
64.286
64.478
64.514
64.386
64.093
63.63
62.999
62.2
61.233
60.111
58.868
57.534
56.153
54.751
53.337
51.929
50.545
49.209
47.975
46.88
45.95
45.229
44.739
44.481
44.47
44.642
44.855
44.958
44.731
43.961
42.53
40.354
37.389
33.736
29.53
25.011
20.629
16.845
14.14
12.838
13.022
14.746
17.965
22.368
27.526
32.083
34.404
34.181
30.814
25.254
18.846
10.123
-0.273
-12.015
-24.793
-34.752
-41.12
-43.051
-37.357
-20.766
13.782
73.232
160.157
272.09
402.354
542.446
683.177
816.051
928.943
1004.893
1027.529
984.087
872.737
707.69
512.435
314.035
136.801
-6.743
-111.717
-177.973
-209.628
-208.28
-179.411
-133.207
-80.816
-37.215
-9.752
3.009
6.684
12.614
26.059
45.164
65.859
81.03
87.601
87.152
81.94
74.967
68.158
61.975
56.95
53.711
52.504
53.266
55.732
59.499
64.061
68.959
73.638
77.401
79.932
81.249
81.478
80.92
79.889
78.599
77.327
76.396
75.958
76.075
76.757
77.913
79.481
81.44
83.739
86.331
89.188
92.271
95.546
98.986
102.544
106.185
109.887
113.631
117.411
121.232
125.099
129.029
133.047
137.165
141.394
145.74
150.207
154.803
159.539
164.424
169.465
174.668
180.033
185.561
191.249
197.088
203.065
209.162
215.361
221.643
227.989
234.38
240.794
247.209
253.6
259.943
266.212
272.38
278.418
284.296
289.984
295.453
300.673
305.617
310.254
314.559
318.505
322.067
325.221
327.946
330.22
332.027
333.349
334.175
334.492
334.292
333.571
332.324
330.553
328.26
325.453
322.138
318.329
314.04
309.288
304.092
298.476
292.463
286.079
279.353
272.314
264.995
257.428
249.646
241.684
233.578
225.361
217.071
208.741
200.407
192.102
183.86
175.713
167.692
159.825
152.141
144.664
137.418
130.425
123.702
117.268
111.136
105.317
99.821
94.654
89.82
85.32
81.154
77.317
73.804
70.606
67.714
65.115
62.796
60.741
58.934
57.355
55.985
54.803
53.788
52.916
52.164
51.507
50.921
50.382
49.865
49.346
48.801
48.205
47.537
46.774
45.895
44.878
43.704
42.355
40.814
39.064
37.092
34.883
32.427
29.712
26.731
23.476
19.94
16.12
12.01
7.609
2.916
-2.069
-7.344
-12.906
-18.751
-24.874
-31.267
-37.923
-44.834
-51.988
-59.376
-66.987
-74.807
-82.824
-91.025
-99.395
-107.921
-116.586
-125.376
-134.273
-143.263
-152.329
-161.453
-170.62
-179.813
-189.015
-198.209
-207.381
-216.512
-225.586
-234.588
-243.501
-252.31
-260.999
-269.552
-277.956
-286.197
-294.261
-302.137
-309.814
-317.281
-324.528
-331.547
-338.331
-344.872
-351.164
-357.203
-362.984
-368.505
-373.766
-378.766
-383.507
-387.993
-392.228
-396.222
-399.982
-403.519
-406.842
-409.963
-412.895
-415.653
-418.253
-420.709
-423.034
-425.245
-427.357
-429.389
-431.361
-433.286
-435.178
-437.049
-438.914
-440.788
-442.682
-444.604
-446.558
-448.548
-450.583
-452.68
-454.854
-457.109
-459.45
-461.874
-464.378
-466.958
-469.6
-472.272
-474.944
-477.581
-480.146
-482.621
-484.988
-487.223
-489.307
-491.203
-492.864
-494.257
-495.348
-496.103
-496.538
-496.67
-496.503
-496.135
-495.694
-495.332
-495.309
-495.832
-496.941
-498.668
-501.045
-503.976
-507.336
-510.867
-513.97
-516.03
-516.704
-515.731
-512.954
-508.401
-502.11
-494.323
-485.849
-477.843
-471.347
-467.248
-466.311
-468.489
-472.925
-478.609
-483.776
-487.625
-491.356
-495.391
-498.604
-495.802
-477.136
-433.586
-360.503
-260.97
-145.151
-23.892
95.62
211.965
326.478
435.932
528.215
583.491
581.12
510.375
377.828
205.416
23.179
-141.179
-271.522
-362.512
-416.089
-438.081
-433.475
-408.348
-371.547
-332.156
-298.207
-273.148
-254.11
-235.506
-213.118
-186.537
-159.708
-138.29
-125.311
-120.687
-122.19
-126.419
-131.241
-135.62
-138.554
-139.353
-137.64
-133.332
-126.839
-118.854
-109.96
-100.716
-91.809
-83.906
-77.389
-72.346
-68.629
-65.935
-63.985
-62.502
-61.169
-59.666
-57.788
-55.456
-52.665
-49.459
-45.877
-41.945
-37.703
-33.205
-28.489
-23.574
-18.483
-13.236
-7.873
-2.451
2.99
8.424
13.835
19.219
24.577
29.908
35.223
40.542
45.878
51.241
56.638
62.071
67.549
73.084
78.688
84.373
90.146
96.012
101.974
108.031
114.178
120.407
126.707
133.063
139.462
145.889
152.331
158.772
165.195
171.582
177.911
184.164
190.318
196.348
202.23
207.938
213.448
218.733
223.769
228.532
232.997
237.141
240.942
244.38
247.435
250.088
252.321
254.121
255.473
256.366
256.793
256.746
256.221
255.216
253.734
251.777
249.353
246.469
243.138
239.372
235.189
230.606
225.645
220.327
214.676
208.721
202.487
196.005
189.305
182.418
175.375
168.208
160.95
153.632
146.286
138.942
131.631
124.382
117.223
110.182
103.284
96.553
90.012
83.681
77.579
71.723
66.127
60.803
55.763
51.014
46.564
42.415
38.57
35.03
31.793
28.856
26.213
23.859
21.783
19.978
18.433
17.136
16.074
15.235
14.605
14.17
13.915
13.825
13.888
14.087
14.409
14.84
15.365
15.972
16.648
17.381
18.16
18.974
19.813
20.669
21.534
22.4
23.26
24.11
24.945
25.759
26.551
27.317
28.054
28.762
29.44
30.087
30.702
31.287
31.842
32.367
32.863
33.331
33.773
34.189
34.579
34.946
35.291
35.614
35.917
36.201
36.467
36.716
36.949
37.167
37.369
37.556
37.728
37.886
38.028
38.156
38.269
38.368
38.452
38.522
38.58
38.625
38.66
38.684
38.7
38.709
38.713
38.715
38.718
38.725
38.74
38.767
38.809
38.87
38.955
39.067
39.21
39.386
39.601
39.855
40.154
40.498
40.893
41.339
41.841
42.4
43.016
43.691
44.424
45.214
46.058
46.952
47.89
48.867
49.875
50.908
51.955
53.007
54.053
55.085
56.094
57.069
58.001
58.879
59.692
60.435
61.101
61.681
62.167
62.551
62.833
63.015
63.1
63.09
62.98
62.758
62.418
61.955
61.367
60.649
59.797
58.81
57.698
56.492
55.226
53.932
52.626
51.314
49.996
48.688
47.419
46.232
45.165
44.248
43.499
42.951
42.645
42.558
42.606
42.607
42.315
41.526
40.1
37.915
34.897
31.1
26.676
21.988
17.581
13.937
11.54
10.771
11.779
14.688
19.381
25.223
31.552
36.964
39.717
39.345
35.154
27.818
19.256
8.833
-3.495
-18.069
-36.652
-57.026
-75.369
-87.993
-88.657
-72.082
-36.319
21.034
101.043
201.111
320.329
455.502
597.22
733.946
848.731
920.549
934.137
883.308
771.689
617.201
443.803
271.84
119.546
-4.786
-99.771
-163.394
-197.449
-202.457
-181.471
-143.482
-98.599
-59.915
-34.753
-22.839
-19.954
-16.422
-7.055
7.418
24.129
37.035
43.035
43.097
39.069
33.5
27.906
22.485
17.335
12.738
9.18
6.88
5.714
5.536
6.095
7.153
8.547
9.872
10.659
10.748
10.184
9.12
7.782
6.313
4.803
3.432
2.434
1.944
2.007
2.59
3.612
5.027
6.821
8.964
11.4
14.07
16.914
19.881
22.951
26.112
29.347
32.646
35.998
39.4
42.862
46.402
50.035
53.763
57.589
61.511
65.532
69.657
73.894
78.249
82.722
87.312
92.018
96.835
101.759
106.781
111.887
117.058
122.279
127.533
132.804
138.077
143.333
148.552
153.714
158.8
163.788
168.654
173.374
177.923
182.276
186.408
190.297
193.916
197.244
200.258
202.935
205.257
207.203
208.755
209.896
210.612
210.889
210.716
210.083
208.984
207.413
205.369
202.85
199.861
196.405
192.491
188.127
183.326
178.101
172.47
166.45
160.062
153.328
146.272
138.92
131.299
123.437
115.365
107.111
98.706
90.183
81.571
72.902
64.206
55.514
46.856
38.261
29.757
21.371
13.129
5.054
-2.831
-10.505
-17.948
-25.145
-32.079
-38.737
-45.109
-51.183
-56.954
-62.416
-67.565
-72.4
-76.922
-81.131
-85.032
-88.63
-91.932
-94.946
-97.681
-100.148
-102.359
-104.325
-106.06
-107.577
-108.89
-110.014
-110.964
-111.754
-112.398
-112.912
-113.31
-113.605
-113.811
-113.941
-114.006
-114.018
-113.989
-113.927
-113.842
-113.743
-113.637
-113.531
-113.431
-113.343
-113.27
-113.216
-113.185
-113.179
-113.198
-113.245
-113.32
-113.423
-113.552
-113.708
-113.889
-114.093
-114.319
-114.563
-114.824
-115.099
-115.384
-115.677
-115.975
-116.274
-116.572
-116.865
-117.152
-117.429
-117.694
-117.945
-118.179
-118.395
-118.589
-118.76
-118.905
-119.023
-119.109
-119.164
-119.183
-119.166
-119.109
-119.01
-118.866
-118.675
-118.435
-118.142
-117.793
-117.386
-116.918
-116.386
-115.789
-115.125
-114.391
-113.587
-112.711
-111.762
-110.74
-109.645
-108.475
-107.23
-105.913
-104.523
-103.063
-101.535
-99.944
-98.292
-96.588
-94.838
-93.051
-91.237
-89.405
-87.568
-85.739
-83.929
-82.15
-80.412
-78.726
-77.103
-75.554
-74.088
-72.714
-71.441
-70.277
-69.232
-68.312
-67.518
-66.845
-66.288
-65.845
-65.516
-65.312
-65.238
-65.297
-65.493
-65.835
-66.327
-66.973
-67.758
-68.645
-69.603
-70.607
-71.644
-72.723
-73.837
-74.955
-76.048
-77.068
-77.973
-78.755
-79.361
-79.702
-79.776
-79.637
-79.411
-79.371
-79.721
-80.553
-82.021
-84.281
-87.287
-90.909
-94.844
-98.48
-101.361
-103.222
-103.66
-102.34
-99.256
-94.519
-88.547
-82.265
-76.447
-71.735
-69.069
-69.452
-73.625
-82.156
-95.299
-111.908
-129.923
-147.403
-161.734
-171.969
-179.44
-183.946
-184.017
-174.253
-145.474
-91.402
-9.388
96.087
215.83
343.06
471.554
597.765
715.542
809.692
861.896
854.05
777.457
640.51
463.594
273.951
97.016
-51.564
-163.817
-238.215
-278.187
-286.809
-270.125
-237.589
-197.434
-160.286
-133.759
-117.806
-110.773
-106.736
-98.959
-87.246
-73.237
-59.977
-51.825
-49.186
-50.269
-53.702
-57.667
-61.057
-63.884
-65.913
-66.717
-66.393
-65.213
-63.258
-60.755
-58.03
-55.214
-52.65
-50.856
-49.927
-49.78
-50.307
-51.214
-52.286
-53.43
-54.434
-55.051
-55.169
-54.714
-53.687
-52.187
-50.257
-47.919
-45.216
-42.185
-38.878
-35.354
-31.663
-27.85
-23.952
-19.991
-15.988
-11.958
-7.905
-3.831
0.276
4.44
8.675
12.989
17.387
21.869
26.439
31.109
35.889
40.785
45.8
50.935
56.189
61.559
67.041
72.622
78.288
84.02
89.8
95.613
101.442
107.269
113.075
118.839
124.54
130.156
135.665
141.042
146.259
151.291
156.111
160.693
165.011
169.041
172.758
176.139
179.161
181.804
184.048
185.876
187.27
188.217
188.705
188.723
188.266
187.327
185.906
184.002
181.619
178.762
175.442
171.667
167.452
162.813
157.768
152.337
146.544
140.413
133.969
127.243
120.264
113.062
105.672
98.125
90.454
82.695
74.88
67.043
59.218
51.437
43.731
36.13
28.665
21.363
14.249
7.348
0.683
-5.728
-11.865
-17.713
-23.259
-28.492
-33.402
-37.982
-42.229
-46.14
-49.716
-52.958
-55.87
-58.459
-60.733
-62.702
-64.376
-65.768
-66.893
-67.764
-68.397
-68.81
-69.018
-69.04
-68.893
-68.595
-68.163
-67.615
-66.968
-66.238
-65.44
-64.591
-63.703
-62.791
-61.867
-60.941
-60.026
-59.129
-58.26
-57.425
-56.631
-55.882
-55.184
-54.538
-53.947
-53.411
-52.932
-52.507
-52.137
-51.818
-51.55
-51.328
-51.15
-51.011
-50.908
-50.837
-50.793
-50.773
-50.772
-50.787
-50.813
-50.848
-50.888
-50.931
-50.973
-51.013
-51.048
-51.076
-51.096
-51.107
-51.106
-51.093
-51.067
-51.029
-50.979
-50.915
-50.839
-50.752
-50.653
-50.542
-50.421
-50.288
-50.143
-49.987
-49.82
-49.641
-49.449
-49.244
-49.025
-48.79
-48.537
-48.266
-47.971
-47.652
-47.305
-46.926
-46.514
-46.067
-45.58
-45.052
-44.48
-43.863
-43.2
-42.488
-41.726
-40.912
-40.046
-39.128
-38.159
-37.141
-36.074
-34.965
-33.819
-32.642
-31.442
-30.227
-29.006
-27.79
-26.591
-25.419
-24.285
-23.198
-22.168
-21.206
-20.325
-19.532
-18.834
-18.237
-17.749
-17.378
-17.132
-17.011
-17.01
-17.123
-17.347
-17.682
-18.138
-18.719
-19.426
-20.259
-21.222
-22.321
-23.558
-24.921
-26.379
-27.894
-29.432
-30.97
-32.507
-34.035
-35.534
-36.973
-38.308
-39.494
-40.505
-41.317
-41.872
-42.119
-42.07
-41.801
-41.506
-41.464
-41.885
-42.93
-44.778
-47.535
-51.157
-55.502
-60.159
-64.478
-67.93
-70.007
-70.193
-68.242
-64.159
-58.134
-50.866
-43.431
-36.837
-32.284
-31.152
-34.474
-42.962
-57.116
-75.987
-97.287
-118.639
-136.925
-150.556
-160.383
-166.275
-167.03
-157.361
-128.261
-73.074
11.735
121.991
248.665
384.869
523.148
658.521
783.224
879.948
929.496
914.523
828.183
681.733
497.812
303.481
121.648
-35.11
-161.36
-255.101
-314.793
-338.337
-327.508
-290.74
-241.341
-195.279
-164.546
-151.183
-150.402
-152.943
-149.602
-138.446
-122.229
-105.708
-94.355
-89.686
-90.216
-93.953
-98.656
-103.21
-107.513
-111.474
-114.844
-117.205
-118.378
-118.448
-117.575
-116.081
-114.235
-112.234
-110.451
-109.3
-108.932
-109.328
-110.333
-111.669
-113.14
-114.616
-115.906
-116.801
-117.173
-116.965
-116.201
-114.971
-113.332
-111.317
-108.967
-106.327
-103.448
-100.383
-97.179
-93.872
-90.487
-87.04
-83.546
-80.011
-76.436
-72.816
-69.132
-65.36
-61.484
-57.493
-53.381
-49.143
-44.77
-40.249
-35.573
-30.734
-25.729
-20.558
-15.223
-9.724
-4.07
1.727
7.652
13.684
19.805
26
32.247
38.527
44.816
51.092
57.33
63.505
69.589
75.553
81.369
87.005
92.431
97.619
102.539
107.162
111.462
115.412
118.986
122.163
124.92
127.237
129.097
130.485
131.387
131.794
131.697
131.093
129.979
128.356
126.229
123.605
120.494
116.907
112.862
108.375
103.467
98.162
92.485
86.463
80.125
73.503
66.63
59.54
52.268
44.849
37.32
29.716
22.075
14.432
6.821
-0.722
-8.166
-15.477
-22.626
-29.584
-36.323
-42.82
-49.05
-54.993
-60.631
-65.947
-70.928
-75.562
-79.84
-83.756
-87.304
-90.483
-93.294
-95.738
-97.819
-99.544
-100.921
-101.959
-102.671
-103.068
-103.166
-102.978
-102.521
-101.811
-100.867
-99.706
-98.345
-96.804
-95.099
-93.25
-91.275
-89.19
-87.012
-84.759
-82.445
-80.086
-77.697
-75.291
-72.881
-70.478
-68.094
-65.738
-63.42
-61.149
-58.932
-56.775
-54.686
-52.668
-50.727
-48.867
-47.09
-45.4
-43.798
-42.285
-40.864
-39.534
-38.297
-37.151
-36.096
-35.132
-34.258
-33.472
-32.773
-32.159
-31.628
-31.177
-30.805
-30.509
-30.286
-30.134
-30.05
-30.032
-30.075
-30.176
-30.333
-30.54
-30.794
-31.09
-31.421
-31.783
-32.17
-32.577
-32.996
-33.42
-33.844
-34.259
-34.658
-35.034
-35.377
-35.68
-35.935
-36.134
-36.27
-36.335
-36.321
-36.221
-36.03
-35.742
-35.352
-34.855
-34.245
-33.52
-32.677
-31.714
-30.632
-29.429
-28.105
-26.666
-25.118
-23.469
-21.73
-19.912
-18.027
-16.091
-14.121
-12.131
-10.135
-8.145
-6.173
-4.235
-2.348
-0.529
1.204
2.838
4.358
5.752
7.006
8.113
9.075
9.889
10.556
11.064
11.39
11.511
11.408
11.064
10.466
9.604
8.477
7.096
5.486
3.665
1.643
-0.572
-2.981
-5.567
-8.302
-11.153
-14.074
-17.001
-19.85
-22.578
-25.192
-27.797
-30.577
-33.68
-37.216
-41.307
-46.116
-51.716
-58
-64.639
-71.091
-76.98
-82.195
-86.641
-90.116
-92.437
-93.627
-94.087
-94.598
-95.722
-97.611
-100.444
-104.619
-110.763
-119.595
-131.453
-146.154
-163.722
-183.526
-203.798
-222.78
-237.922
-248.177
-255.097
-258.095
-255.171
-241.305
-207.686
-150.453
-68.951
34.601
153.55
285.746
427.929
571.625
704.82
805.15
849.326
822.977
722.827
563.912
371.978
173.527
-7.945
-159.742
-276.082
-354.228
-395.942
-402.04
-377.579
-333.828
-281.776
-235.582
-204.958
-189.228
-184.538
-181.889
-172.538
-156.093
-135.278
-114.861
-100.373
-92.807
-90.538
-91.943
-95.06
-98.803
-103.005
-107.259
-110.93
-113.484
-114.673
-114.349
-112.55
-109.57
-105.686
-101.29
-96.945
-93.114
-89.99
-87.583
-85.765
-84.337
-83.143
-82.026
-80.765
-79.133
-77.006
-74.366
-71.264
-67.78
-63.971
-59.866
-55.504
-50.948
-46.254
-41.472
-36.642
-31.778
-26.885
-21.979
-17.067
-12.152
-7.236
-2.303
2.668
7.689
12.768
17.908
23.108
28.373
33.713
39.134
44.642
50.238
55.923
61.696
67.555
73.496
79.511
85.585
91.703
97.85
104.009
110.167
116.307
122.41
128.457
134.429
140.303
146.06
151.674
157.121
162.376
167.412
172.205
176.731
180.964
184.883
188.463
191.685
194.528
196.973
199.005
200.606
201.765
202.469
202.711
202.482
201.779
200.6
198.946
196.822
194.232
191.187
187.697
183.777
179.443
174.713
169.607
164.149
158.363
152.275
145.913
139.306
132.487
125.486
118.337
111.072
103.724
96.328
88.916
81.52
74.172
66.902
59.742
52.718
45.858
39.188
32.73
26.507
20.539
14.843
9.434
4.325
-0.472
-4.95
-9.102
-12.922
-16.411
-19.566
-22.39
-24.887
-27.062
-28.922
-30.477
-31.736
-32.713
-33.42
-33.871
-34.083
-34.07
-33.849
-33.439
-32.854
-32.114
-31.236
-30.236
-29.131
-27.939
-26.675
-25.355
-23.993
-22.604
-21.2
-19.793
-18.395
-17.016
-15.664
-14.349
-13.078
-11.856
-10.69
-9.584
-8.542
-7.566
-6.659
-5.82
-5.051
-4.351
-3.718
-3.15
-2.645
-2.198
-1.807
-1.466
-1.172
-0.919
-0.701
-0.514
-0.352
-0.208
-0.079
0.043
0.161
0.282
0.411
0.551
0.709
0.889
1.096
1.335
1.61
1.925
2.285
2.693
3.155
3.673
4.25
4.892
5.6
6.377
7.228
8.153
9.156
10.237
11.397
12.638
13.958
15.357
16.834
18.389
20.018
21.72
23.493
25.336
27.244
29.214
31.241
33.322
35.448
37.614
39.81
42.026
44.253
46.479
48.694
50.883
53.034
55.134
57.173
59.138
61.02
62.805
64.483
66.046
67.488
68.805
69.99
71.037
71.941
72.705
73.334
73.837
74.217
74.473
74.597
74.585
74.438
74.156
73.735
73.169
72.46
71.62
70.68
69.683
68.662
67.638
66.618
65.603
64.614
63.687
62.871
62.213
61.744
61.487
61.495
61.828
62.486
63.385
64.318
64.988
65.157
64.67
63.379
61.176
58.08
54.261
50.169
46.513
43.942
42.997
44.141
47.618
53.422
61.238
70.241
79.197
86.801
91.622
92.197
87.44
76.593
59.975
39.448
17.414
-3.194
-20.65
-35.144
-46.523
-53.855
-52.154
-32.536
12.906
89.132
193.219
315.939
447.792
580.739
710.943
833.624
938.386
1008.563
1024.629
975.538
862.125
701.221
519.8
341.083
184.548
57.489
-41.35
-110.664
-152.542
-165.675
-148.731
-109.876
-58.812
-9.453
25.016
42.179
44.874
41.579
42.1
48.824
60.124
71.663
78.229
79.11
76.041
70.995
66.435
63.292
61.441
61.102
62.122
64.101
66.812
69.954
73.133
76.13
78.699
80.396
81.055
80.779
79.706
78.121
76.317
74.444
72.688
71.309
70.432
70.116
70.388
71.173
72.412
74.092
76.167
78.587
81.319
84.307
87.501
90.862
94.331
97.867
101.441
105.03
108.62
112.212
115.803
119.408
123.045
126.726
130.458
134.246
138.09
141.997
145.976
150.034
154.177
158.407
162.723
167.124
171.607
176.161
180.777
185.436
190.122
194.816
199.504
204.169
208.793
213.357
217.842
222.229
226.497
230.626
234.592
238.373
241.943
245.281
248.364
251.169
253.676
255.863
257.71
259.201
260.318
261.046
261.371
261.281
260.766
259.818
258.431
256.6
254.324
251.604
248.441
244.842
240.814
236.366
231.509
226.258
220.628
214.637
208.302
201.646
194.689
187.456
179.971
172.26
164.35
156.269
148.044
139.704
131.277
122.79
114.272
105.748
97.244
88.786
80.396
72.099
63.915
55.864
47.964
40.233
32.684
25.333
18.19
11.266
4.568
-1.897
-8.125
-14.111
-19.855
-25.355
-30.614
-35.635
-40.42
-44.975
-49.306
-53.421
-57.328
-61.036
-64.555
-67.896
-71.068
-74.083
-76.952
-79.686
-82.295
-84.791
-87.183
-89.482
-91.697
-93.838
-95.913
-97.931
-99.899
-101.824
-103.715
-105.577
-107.415
-109.236
-111.045
-112.845
-114.641
-116.437
-118.237
-120.043
-121.859
-123.687
-125.53
-127.389
-129.265
-131.16
-133.074
-135.009
-136.965
-138.943
-140.944
-142.967
-145.014
-147.086
-149.185
-151.312
-153.467
-155.653
-157.871
-160.123
-162.41
-164.732
-167.091
-169.487
-171.92
-174.392
-176.901
-179.448
-182.031
-184.649
-187.301
-189.985
-192.697
-195.434
-198.195
-200.975
-203.771
-206.581
-209.401
-212.227
-215.056
-217.886
-220.713
-223.534
-226.345
-229.143
-231.921
-234.679
-237.411
-240.115
-242.786
-245.422
-248.024
-250.592
-253.129
-255.636
-258.115
-260.569
-263.003
-265.42
-267.826
-270.223
-272.611
-274.995
-277.383
-279.78
-282.192
-284.622
-287.07
-289.54
-292.034
-294.554
-297.099
-299.663
-302.241
-304.83
-307.435
-310.068
-312.736
-315.445
-318.193
-320.981
-323.807
-326.668
-329.547
-332.416
-335.246
-338.006
-340.67
-343.214
-345.615
-347.851
-349.902
-351.736
-353.315
-354.606
-355.591
-356.266
-356.672
-356.837
-356.76
-356.526
-356.271
-356.159
-356.43
-357.265
-358.671
-360.707
-363.511
-367.009
-371.026
-375.27
-379.117
-381.951
-383.408
-383.058
-380.447
-376.228
-371.722
-367.946
-365.962
-364.761
-361.736
-356.756
-351.808
-351.116
-360.048
-379.451
-406.35
-436.001
-462.13
-479.915
-483.212
-463.837
-415.561
-335.428
-228.719
-106.765
20.436
145.647
266.898
381.466
478.43
540.401
547.068
486.599
363.374
196.528
14.614
-156.248
-299.55
-409.752
-488.342
-538.6
-562.63
-559.695
-533.407
-491.778
-445.574
-409.25
-388.813
-381.951
-382.475
-379.325
-367.627
-349.591
-329.137
-312.178
-301.327
-295.202
-291.885
-289.534
-287.386
-285.401
-283.554
-281.616
-279.037
-275.647
-271.556
-266.71
-261.182
-255.184
-248.847
-242.519
-236.676
-231.44
-226.768
-222.569
-218.621
-214.758
-210.886
-206.822
-202.345
-197.34
-191.757
-185.618
-179.014
-172.002
-164.613
-156.889
-148.883
-140.651
-132.251
-123.733
-115.137
-106.49
-97.813
-89.123
-80.433
-71.749
-63.071
-54.384
-45.671
-36.924
-28.136
-19.308
-10.442
-1.533
7.425
16.435
25.499
34.614
43.777
52.981
62.222
71.488
80.766
90.038
99.284
108.485
117.624
126.683
135.642
144.483
153.182
161.72
170.074
178.222
186.14
193.804
201.187
208.267
215.02
221.424
227.455
233.092
238.317
243.109
247.453
251.331
254.731
257.64
260.047
261.946
263.332
264.199
264.549
264.383
263.704
262.521
260.841
258.678
256.043
252.954
249.429
245.488
241.153
236.447
231.397
226.029
220.372
214.456
208.31
201.967
195.458
188.816
182.072
175.26
168.41
161.555
154.725
147.95
141.258
134.678
128.234
121.951
115.852
109.958
104.288
98.858
93.685
88.78
84.155
79.819
75.778
72.038
68.6
65.467
62.637
60.108
57.875
55.933
54.275
52.892
51.774
50.911
50.291
49.9
49.726
49.753
49.967
50.353
50.895
51.579
52.388
53.307
54.322
55.417
56.579
57.793
59.046
60.325
61.618
62.913
64.2
65.469
66.711
67.917
69.08
70.193
71.25
72.245
73.173
74.031
74.814
75.519
76.146
76.692
77.157
77.54
77.842
78.064
78.208
78.274
78.265
78.184
78.032
77.813
77.53
77.187
76.786
76.332
75.829
75.282
74.696
74.076
73.426
72.751
72.056
71.347
70.629
69.907
69.188
68.477
67.782
67.107
66.46
65.846
65.271
64.74
64.258
63.831
63.461
63.154
62.912
62.74
62.641
62.618
62.673
62.808
63.022
63.318
63.693
64.145
64.667
65.255
65.903
66.605
67.353
68.136
68.946
69.772
70.606
71.44
72.264
73.066
73.832
74.552
75.217
75.819
76.35
76.798
77.151
77.403
77.554
77.605
77.554
77.392
77.102
76.672
76.1
75.38
74.507
73.478
72.285
70.942
69.477
67.921
66.31
64.666
62.992
61.303
59.608
57.928
56.306
54.773
53.348
52.065
50.94
49.976
49.194
48.538
47.861
46.987
45.667
43.672
40.887
37.227
32.621
27.134
20.939
14.348
7.937
2.293
-2.148
-5.061
-6.258
-5.777
-3.805
-0.742
2.501
4.789
5.095
2.414
-4.058
-14.638
-29.554
-48.047
-67.375
-84.568
-96.682
-102.398
-104.02
-102.9
-96.984
-80.716
-44.035
20.807
113.427
228.065
354.46
482.356
606.219
718.866
809.627
863.687
863.948
802.334
681.582
517.033
332.927
150.229
-12.817
-144.572
-240.716
-297.731
-316.882
-303.793
-267.337
-220.584
-176.673
-144.928
-127.328
-120.023
-115.658
-106.895
-92.506
-75.191
-59.243
-49.451
-46.737
-49.264
-54.971
-61.575
-67.674
-72.923
-76.948
-79.306
-79.968
-79.154
-77.114
-74.217
-70.919
-67.531
-64.446
-62.183
-60.875
-60.441
-60.742
-61.462
-62.353
-63.277
-64.026
-64.371
-64.212
-63.497
-62.238
-60.535
-58.442
-55.985
-53.217
-50.173
-46.901
-43.458
-39.891
-36.243
-32.552
-28.84
-25.125
-21.421
-17.733
-14.059
-10.39
-6.703
-2.983
0.774
4.577
8.425
12.325
16.289
20.329
24.451
28.662
32.965
37.36
41.849
46.428
51.089
55.821
60.607
65.435
70.293
75.166
80.042
84.903
89.732
94.511
99.223
103.847
108.36
112.741
116.964
121.006
124.843
128.454
131.814
134.9
137.692
140.168
142.308
144.096
145.512
146.542
147.171
147.387
147.181
146.544
145.471
143.958
142.005
139.613
136.787
133.532
129.859
125.777
121.302
116.447
111.232
105.676
99.8
93.628
87.186
80.499
73.596
66.507
59.26
51.887
44.417
36.883
29.313
21.74
14.192
6.699
-0.712
-8.013
-15.178
-22.183
-29.004
-35.62
-42.012
-48.162
-54.054
-59.675
-65.013
-70.058
-74.803
-79.243
-83.374
-87.194
-90.703
-93.905
-96.802
-99.401
-101.707
-103.73
-105.48
-106.966
-108.201
-109.198
-109.969
-110.53
-110.893
-111.074
-111.087
-110.948
-110.671
-110.271
-109.763
-109.16
-108.477
-107.727
-106.923
-106.076
-105.198
-104.3
-103.392
-102.482
-101.578
-100.688
-99.818
-98.974
-98.161
-97.383
-96.644
-95.947
-95.293
-94.685
-94.124
-93.61
-93.144
-92.726
-92.356
-92.033
-91.757
-91.526
-91.341
-91.199
-91.098
-91.039
-91.017
-91.032
-91.082
-91.163
-91.274
-91.412
-91.576
-91.763
-91.97
-92.196
-92.438
-92.693
-92.961
-93.237
-93.52
-93.806
-94.092
-94.375
-94.653
-94.922
-95.177
-95.416
-95.634
-95.826
-95.988
-96.115
-96.201
-96.242
-96.232
-96.166
-96.04
-95.849
-95.588
-95.254
-94.843
-94.353
-93.78
-93.122
-92.377
-91.542
-90.618
-89.603
-88.5
-87.308
-86.03
-84.668
-83.229
-81.718
-80.145
-78.516
-76.842
-75.134
-73.405
-71.665
-69.926
-68.199
-66.492
-64.819
-63.189
-61.614
-60.103
-58.666
-57.311
-56.049
-54.887
-53.826
-52.864
-51.997
-51.223
-50.545
-49.975
-49.52
-49.185
-48.977
-48.905
-48.975
-49.19
-49.537
-49.983
-50.498
-51.058
-51.652
-52.286
-52.948
-53.605
-54.226
-54.762
-55.173
-55.447
-55.533
-55.343
-54.881
-54.202
-53.429
-52.813
-52.531
-52.646
-53.308
-54.684
-56.756
-59.435
-62.47
-65.339
-67.701
-69.396
-70.082
-69.416
-67.308
-63.755
-59.049
-53.951
-49.03
-44.739
-41.884
-41.45
-44.3
-51.207
-62.629
-77.666
-94.495
-111.26
-125.395
-135.968
-144.403
-150.869
-154.068
-148.278
-123.279
-71.218
11.36
119.692
243.213
373.268
503.355
631.021
751.7
851.662
911.6
910.478
836.789
696.86
511.72
311.874
126.039
-27.868
-141.618
-215.557
-254.994
-263.668
-247.245
-214.345
-173.093
-135.078
-109.191
-95.953
-92.802
-92.213
-86.047
-73.158
-55.592
-37.67
-24.62
-17.721
-15.65
-16.554
-18.427
-20.415
-22.525
-24.71
-26.664
-27.874
-28.104
-27.375
-25.757
-23.474
-20.716
-17.644
-14.644
-12.177
-10.438
-9.441
-9.071
-9.089
-9.329
-9.679
-9.945
-9.901
-9.409
-8.404
-6.906
-5.003
-2.749
-0.176
2.678
5.766
9.037
12.441
15.935
19.488
23.079
26.693
30.317
33.944
37.572
41.206
44.864
48.57
52.338
56.18
60.1
64.103
68.199
72.398
76.709
81.138
85.689
90.362
95.157
100.073
105.104
110.24
115.466
120.766
126.123
131.523
136.947
142.379
147.798
153.183
158.513
163.766
168.917
173.942
178.815
183.509
187.998
192.258
196.262
199.987
203.408
206.504
209.252
211.633
213.628
215.221
216.395
217.138
217.44
217.292
216.687
215.621
214.094
212.107
209.663
206.771
203.438
199.678
195.504
190.934
185.987
180.684
175.05
169.108
162.886
156.413
149.717
142.831
135.785
128.612
121.343
114.012
106.65
99.29
91.961
84.695
77.52
70.465
63.556
56.817
50.273
43.945
37.851
32.011
26.439
21.148
16.149
11.452
7.062
2.982
-0.784
-4.238
-7.383
-10.223
-12.766
-15.019
-16.993
-18.7
-20.152
-21.365
-22.354
-23.136
-23.727
-24.146
-24.411
-24.54
-24.552
-24.465
-24.298
-24.068
-23.793
-23.49
-23.174
-22.863
-22.569
-22.308
-22.091
-21.931
-21.838
-21.822
-21.892
-22.053
-22.313
-22.675
-23.143
-23.72
-24.406
-25.203
-26.109
-27.122
-28.241
-29.46
-30.777
-32.186
-33.682
-35.259
-36.909
-38.627
-40.405
-42.235
-44.11
-46.022
-47.963
-49.925
-51.9
-53.879
-55.855
-57.819
-59.763
-61.68
-63.562
-65.402
-67.192
-68.927
-70.6
-72.203
-73.732
-75.181
-76.543
-77.814
-78.988
-80.062
-81.032
-81.894
-82.645
-83.282
-83.802
-84.203
-84.483
-84.64
-84.672
-84.578
-84.357
-84.012
-83.542
-82.95
-82.237
-81.405
-80.454
-79.387
-78.209
-76.922
-75.532
-74.044
-72.461
-70.794
-69.051
-67.241
-65.375
-63.459
-61.501
-59.511
-57.504
-55.496
-53.503
-51.539
-49.615
-47.742
-45.932
-44.196
-42.543
-40.978
-39.496
-38.097
-36.78
-35.555
-34.424
-33.385
-32.416
-31.484
-30.555
-29.617
-28.667
-27.717
-26.781
-25.84
-24.888
-23.966
-23.073
-22.181
-21.234
-20.051
-18.467
-16.493
-14.157
-11.521
-8.861
-6.418
-4.443
-3.508
-4.061
-6.206
-10.047
-15.387
