Name,Kaushik Vada
Date of Birth,"Mar 17, 2005"
Recorded Date,2024-05-26 08:10:23 -0800
Classification,Poor Recording
Symptoms,
Software Version,1.90
Device,"Watch6,15"
Sample Rate,512 hertz


Lead,Lead I
Unit,µV

-67.086
-77.184
-86.597
-93.294
-94.502
-92.651
-89.799
-87.364
-87.691
-89.114
-89.955
-89.854
-87.794
-84.394
-80.441
-75.808
-70.616
-64.84
-58.354
-51.293
-43.775
-35.812
-27.441
-18.715
-9.678
-0.371
9.164
18.891
28.781
38.776
48.82
58.865
68.861
78.758
88.508
98.061
107.368
116.385
125.069
133.378
141.274
148.719
155.678
162.121
168.017
173.34
178.066
182.175
185.648
188.47
190.632
192.123
192.941
193.085
192.557
191.363
189.514
187.022
183.904
180.177
175.864
170.99
165.581
159.667
153.279
146.452
139.219
131.62
123.69
115.47
106.998
98.314
89.459
80.471
71.391
62.259
53.112
43.988
34.925
25.958
17.122
8.449
-0.03
-8.285
-16.289
-24.017
-31.446
-38.556
-45.328
-51.746
-57.798
-63.472
-68.76
-73.657
-78.16
-82.267
-85.98
-89.301
-92.238
-94.796
-96.985
-98.815
-100.298
-101.447
-102.276
-102.8
-103.034
-102.996
-102.702
-102.17
-101.417
-100.463
-99.325
-98.021
-96.57
-94.99
-93.3
-91.516
-89.655
-87.734
-85.769
-83.774
-81.765
-79.753
-77.751
-75.77
-73.82
-71.911
-70.05
-68.245
-66.501
-64.824
-63.218
-61.686
-60.233
-58.859
-57.568
-56.36
-55.237
-54.197
-53.242
-52.371
-51.583
-50.875
-50.247
-49.696
-49.22
-48.814
-48.477
-48.204
-47.992
-47.835
-47.73
-47.672
-47.656
-47.677
-47.731
-47.813
-47.919
-48.044
-48.184
-48.337
-48.497
-48.661
-48.825
-48.987
-49.142
-49.288
-49.421
-49.537
-49.634
-49.709
-49.758
-49.778
-49.767
-49.722
-49.638
-49.514
-49.347
-49.135
-48.875
-48.565
-48.203
-47.79
-47.323
-46.802
-46.228
-45.598
-44.914
-44.174
-43.378
-42.526
-41.616
-40.648
-39.621
-38.534
-37.388
-36.181
-34.913
-33.583
-32.19
-30.735
-29.216
-27.632
-25.984
-24.271
-22.493
-20.652
-18.75
-16.787
-14.765
-12.687
-10.555
-8.372
-6.14
-3.862
-1.54
0.823
3.221
5.651
8.105
10.577
13.059
15.539
18.008
20.451
22.855
25.204
27.484
29.678
31.769
33.743
35.585
37.281
38.815
40.176
41.349
42.323
43.087
43.63
43.945
44.025
43.87
43.487
42.883
42.063
41.027
39.767
38.277
36.556
34.603
32.411
29.986
27.33
24.47
21.458
18.339
15.153
11.926
8.658
5.367
2.094
-1.11
-4.18
-7.056
-9.716
-12.102
-14.116
-15.745
-17.057
-18.214
-19.525
-21.239
-23.474
-26.39
-30.147
-34.733
-40.006
-45.641
-51.032
-55.686
-59.316
-61.55
-62.075
-60.895
-58.111
-53.951
-49.068
-44.051
-39.962
-38.683
-41.631
-49.141
-59.156
-68.307
-74.282
-76.817
-80.092
-88.699
-104.712
-128.099
-152.1
-167.974
-167.045
-138.414
-77.209
17.555
143.504
290.752
451.511
619.511
786.918
947.1
1086.191
1182.507
1215.475
1169.69
1043.478
854.96
632.946
408.498
208.61
46.712
-72.864
-149.233
-185.707
-185.907
-157.923
-116.442
-77.225
-53.813
-50.178
-59.71
-70.969
-72.6
-61.106
-41.135
-19.515
-2.137
10.203
21.795
34.597
47.064
55.731
54.579
42.904
26.038
8.983
-2.277
-5.839
-5.428
-3.135
-0.393
2.128
6.243
12.203
18.642
24.966
30.662
35.425
39.596
43.253
46.026
48.065
49.99
52.124
54.686
57.758
61.097
64.572
68.209
71.831
75.144
77.964
80.115
81.498
82.145
82.044
81.21
79.768
77.833
75.475
72.732
69.584
66.042
62.21
58.246
54.303
50.505
46.958
43.776
41.109
39.112
37.902
37.513
37.921
39.141
41.232
44.299
48.496
53.926
60.615
68.549
77.7
88.034
99.507
112.051
125.528
139.777
154.666
170.103
186.038
202.403
219.101
236.017
252.994
269.897
286.645
303.177
319.445
335.422
351.062
366.304
381.151
395.632
409.761
423.554
436.987
450.028
462.654
474.843
486.588
497.888
508.702
518.976
528.652
537.654
545.963
553.626
560.647
567.019
572.738
577.781
582.16
585.917
589.081
591.684
593.758
595.327
596.45
597.215
597.708
598.028
598.224
598.285
598.225
598.07
597.848
597.608
597.38
597.169
597.006
596.935
596.997
597.239
597.685
598.333
599.188
600.253
601.55
603.127
605.021
607.26
609.871
612.872
616.286
620.143
624.452
629.204
634.392
640.004
646.034
652.479
659.334
666.587
674.221
682.219
690.563
699.234
708.212
717.474
726.998
736.762
746.747
756.935
767.309
777.852
788.549
799.387
810.349
821.407
832.532
843.688
854.83
865.911
876.87
887.633
898.132
908.304
918.096
927.464
936.358
944.723
952.504
959.651
966.132
971.928
977.016
981.374
985.02
988.016
990.469
992.503
994.201
995.59
996.702
997.588
998.269
998.699
998.75
998.249
997.101
995.355
993.077
990.206
986.654
982.36
977.369
971.794
965.552
958.234
949.27
938.239
924.801
908.596
889.111
865.74
838.205
806.722
771.87
734.175
694.057
652.004
608.685
564.926
521.331
478.076
435.031
392.146
349.56
307.449
265.963
225.105
184.9
145.606
107.595
71.158
36.433
3.382
-28.148
-58.246
-86.964
-114.41
-140.726
-166.105
-190.759
-214.798
-238.275
-261.244
-283.777
-306.004
-328.054
-349.988
-371.819
-393.521
-415.04
-436.342
-457.401
-478.14
-498.475
-518.296
-537.475
-555.943
-573.667
-590.607
-606.73
-621.98
-636.307
-649.699
-662.173
-673.747
-684.445
-694.283
-703.28
-711.485
-718.959
-725.768
-731.987
-737.669
-742.851
-747.577
-751.884
-755.807
-759.381
-762.627
-765.553
-768.177
-770.516
-772.592
-774.423
-776.021
-777.392
-778.54
-779.472
-780.192
-780.708
-781.026
-781.149
-781.086
-780.844
-780.431
-779.858
-779.131
-778.255
-777.233
-776.066
-774.755
-773.302
-771.706
-769.963
-768.072
-766.033
-763.844
-761.504
-759.011
-756.365
-753.568
-750.624
-747.538
-744.316
-740.965
-737.494
-733.914
-730.236
-726.471
-722.628
-718.713
-714.735
-710.702
-706.628
-702.524
-698.398
-694.255
-690.099
-685.932
-681.757
-677.575
-673.375
-669.151
-664.899
-660.623
-656.346
-652.093
-647.882
-643.73
-639.654
-635.656
-631.749
-627.935
-624.203
-620.545
-616.947
-613.383
-609.851
-606.336
-602.807
-599.239
-595.544
-591.597
-587.369
-582.862
-578.124
-573.319
-568.546
-563.862
-559.486
-555.641
-552.372
-549.692
-547.379
-544.916
-542.035
-538.528
-533.991
-528.219
-521.203
-512.742
-502.928
-492.443
-481.569
-471.32
-463.828
-459.487
-457.99
-458.597
-458.602
-458.744
-463.224
-474.858
-496.378
-526.032
-556.115
-581.342
-598.758
-606.056
-603.348
-586.694
-546.341
-475.636
-371.816
-236.884
-82.06
82.604
251.998
420.822
586.636
741.363
866.41
940.641
943.786
866.828
718.364
519.753
301.023
90.379
-92.729
-235.461
-333.945
-390.163
-407.045
-394.604
-365.744
-332.274
-308.177
-298.783
-301.078
-309.19
-312.373
-305.348
-289.813
-270.192
-253.938
-244.647
-241.744
-243.364
-246.306
-249.319
-252.719
-256.312
-260.077
-263.618
-266.056
-267.269
-267.513
-266.765
-265.147
-262.963
-260.438
-258.082
-256.575
-256.105
-256.603
-258.079
-260.377
-263.153
-266.17
-269.102
-271.347
-273.316
-275.515
-277.071
-277.795
-276.18
-270.395
-262.575
-254.166
-247.286
-244.805
-244.286
-243.666
-241.555
-235.625
-227.649
-219.41
-211.296
-204.356
-197.965
-191.31
-184.542
-177.573
-170.422
-163.206
-155.902
-148.523
-141.028
-133.415
-125.684
-117.602
-109.774
-102.787
-95.812
-88.61
-79.632
-67.023
-52.852
-38.502
-26.025
-18.236
-12.67
-7.239
-0.522
9.842
22.134
34.61
46.867
57.831
68.084
78.385
88.555
98.667
108.639
118.281
127.668
136.853
145.779
154.413
162.735
170.716
178.325
185.534
192.306
198.601
204.407
209.716
214.51
218.779
222.514
225.707
228.357
230.465
232.031
233.059
233.553
233.52
232.97
231.916
230.371
228.351
225.874
222.962
219.637
215.926
211.857
207.461
202.767
197.81
192.627
187.252
181.72
176.064
170.31
164.482
158.613
152.725
146.832
140.952
135.098
129.287
123.569
117.981
112.533
107.26
102.216
97.425
92.94
88.81
84.993
81.467
78.298
75.439
72.714
70.153
67.858
65.742
64.057
62.591
60.039
56.563
53.444
52.448
57.716
70.428
86.543
101.046
106.667
99.183
83.601
67.512
58.698
63.187
77.875
95.554
110.944
119.558
122.016
122.717
123.912
127.137
132.741
139.225
146.141
153.739
162.055
171.414
181.969
193.505
205.889
219.053
232.814
247.039
261.686
276.73
292.198
308.16
324.615
341.501
358.74
376.179
393.628
410.899
427.788
444.157
459.933
475.071
489.598
503.522
516.804
529.383
541.14
551.92
561.619
570.168
577.512
583.686
588.767
592.862
596.141
598.732
600.711
602.137
603.016
603.348
603.175
602.549
601.548
600.293
598.875
597.367
595.847
594.335
592.815
591.246
589.526
587.569
585.33
582.776
579.902
576.719
573.219
569.399
565.263
560.786
555.948
550.738
545.129
539.119
532.726
525.976
518.922
511.617
504.091
496.369
488.464
480.379
472.121
463.686
455.061
446.241
437.222
428.005
418.593
408.988
399.184
389.176
378.954
368.509
357.834
346.925
335.781
324.4
312.787
300.946
288.887
276.621
264.156
251.5
238.661
225.647
212.468
199.135
185.655
172.042
158.305
144.458
130.517
116.494
102.405
88.265
74.089
59.894
45.694
31.504
17.34
3.217
-10.853
-24.855
-38.776
-52.603
-66.324
-79.928
-93.403
-106.74
-119.928
-132.959
-145.823
-158.513
-171.022
-183.342
-195.466
-207.389
-219.103
-230.604
-241.887
-252.948
-263.783
-274.389
-284.763
-294.905
-304.812
-314.483
-323.915
-333.107
-342.056
-350.762
-359.221
-367.432
-375.392
-383.097
-390.545
-397.732
-404.657
-411.313
-417.697
-423.804
-429.629
-435.169
-440.421
-445.381
-450.046
-454.413
-458.478
-462.24
-465.698
-468.851
-471.696
-474.23
-476.453
-478.365
-479.968
-481.268
-482.267
-482.972
-483.391
-483.534
-483.415
-483.05
-482.458
-481.651
-480.647
-479.458
-478.096
-476.576
-474.912
-473.112
-471.184
-469.131
-466.955
-464.662
-462.254
-459.74
-457.116
-454.361
-451.454
-448.376
-445.129
-441.745
-438.259
-434.687
-431.044
-427.333
-423.6
-419.954
-416.412
-412.895
-409.307
-405.515
-401.499
-397.436
-393.377
-389.185
-384.908
-380.701
-376.775
-373.604
-371.314
-369.515
-368.038
-366.889
-365.771
-364.342
-362.03
-357.745
-350.982
-341.918
-330.508
-316.811
-301.296
-284.532
-267.596
-252.137
-239.171
-229.081
-222.294
-218.868
-218.305
-220.712
-226.471
-234.932
-245.712
-256.217
-261.128
-258.606
-249.954
-240.668
-240.457
-253.193
-275.736
-301.127
-319.808
-326.239
-319.898
-299.201
-259.205
-194.019
-97.44
32.287
188.76
364.428
550.57
735.447
905.954
1043.281
1124.345
1131.362
1058.381
912.163
714.443
493.257
271.367
69.057
-101.098
-233.058
-319.777
-360.121
-358.644
-325.355
-277.487
-232.658
-203.746
-193.975
-197.41
-203.727
-202.803
-191.869
-174.663
-157.086
-144.737
-138.834
-137.129
-137.001
-136.688
-135.932
-135.092
-134.665
-135.124
-136.825
-140.418
-146.083
-153.124
-160.821
-168.542
-175.666
-181.904
-186.791
-189.459
-189.672
-187.833
-184.46
-180.328
-176.008
-171.662
-167.674
-164.648
-162.796
-162.034
-162.059
-162.244
-162.227
-161.959
-161.301
-160.099
-158.305
-155.92
-153.129
-150.301
-147.651
-145.25
-143.15
-141.341
-139.84
-138.695
-137.889
-137.36
-137.075
-137.019
-137.201
-137.656
-138.393
-139.399
-140.662
-142.158
-143.872
-145.799
-147.927
-150.244
-152.739
-155.398
-158.212
-161.175
-164.275
-167.501
-170.839
-174.274
-177.792
-181.384
-185.044
-188.767
-192.55
-196.39
-200.286
-204.238
-208.247
-212.315
-216.448
-220.648
-224.921
-229.274
-233.714
-238.248
-242.887
-247.639
-252.512
-257.516
-262.658
-267.946
-273.388
-278.992
-284.763
-290.707
-296.826
-303.125
-309.603
-316.262
-323.098
-330.109
-337.289
-344.63
-352.123
-359.758
-367.522
-375.398
-383.371
-391.42
-399.527
-407.667
-415.819
-423.956
-432.053
-440.082
-448.017
-455.828
-463.486
-470.962
-478.228
-485.253
-492.01
-498.469
-504.604
-510.387
-515.793
-520.798
-525.378
-529.514
-533.184
-536.371
-539.059
-541.235
-542.885
-544.001
-544.574
-544.599
-544.073
-542.993
-541.361
-539.18
-536.455
-533.191
-529.398
-525.087
-520.269
-514.957
-509.166
-502.913
-496.215
-489.09
-481.56
-473.645
-465.367
-456.749
-447.814
-438.587
-429.093
-419.355
-409.4
-399.251
-388.933
-378.471
-367.888
-357.209
-346.456
-335.654
-324.824
-313.99
-303.174
-292.397
-281.68
-271.044
-260.51
-250.097
-239.827
-229.718
-219.791
-210.066
-200.564
-191.302
-182.299
-173.573
-165.14
-157.014
-149.207
-141.729
-134.589
-127.796
-121.358
-115.284
-109.585
-104.267
-99.34
-94.811
-90.689
-86.98
-83.69
-80.816
-78.355
-76.304
-74.661
-73.43
-72.605
-72.168
-72.095
-72.359
-72.923
-73.75
-74.793
-75.984
-77.26
-78.559
-79.826
-81.028
-82.133
-83.1
-83.886
-84.442
-84.739
-84.78
-84.578
-84.133
-83.457
-82.561
-81.474
-80.274
-79.012
-77.711
-76.371
-74.941
-73.371
-71.622
-69.649
-67.395
-64.771
-61.637
-57.845
-53.275
-47.793
-41.257
-33.491
-24.259
-13.375
-0.721
13.77
30.107
48.293
68.342
90.237
113.93
139.33
166.296
194.683
224.369
255.192
286.955
319.398
352.194
385.071
417.83
450.318
482.423
514.021
544.978
575.194
604.599
633.14
660.783
687.47
713.135
737.767
761.402
784.144
806.157
827.549
848.384
868.702
888.521
907.873
926.8
945.311
963.403
981.08
998.366
1015.32
1032.008
1048.447
1064.623
1080.48
1095.929
1110.919
1125.424
1139.42
1152.904
1165.87
1178.319
1190.281
1201.794
1212.883
1223.557
1233.8
1243.597
1252.957
1261.906
1270.48
1278.733
1286.703
1294.421
1301.92
1309.227
1316.357
1323.322
1330.116
1336.727
1343.149
1349.381
1355.425
1361.286
1366.963
1372.45
1377.74
1382.822
1387.685
1392.321
1396.725
1400.894
1404.825
1408.515
1411.954
1415.139
1418.073
1420.759
1423.201
1425.404
1427.373
1429.125
1430.699
1432.132
1433.47
1434.749
1435.986
1437.205
1438.431
1439.704
1441.088
1442.635
1444.381
1446.369
1448.617
1451.147
1453.993
1457.086
1460.277
1463.38
1466.125
1468.276
1469.718
1470.304
1469.888
1468.5
1466.22
1463.313
1460.38
1457.985
1456.535
1456.427
1458.04
1461.642
1467.489
1475.469
1484.163
1491.364
1495.333
1495.238
1492.876
1491.571
1492.684
1494.945
1493.032
1481.253
1457.988
1425.461
1391.902
1365.915
1353.931
1364.402
1402.71
1473.182
1579.133
1714.214
1869.053
2034.615
2200.446
2360.358
2505.048
2617.576
2678.108
2667.853
2579.917
2422.008
2214.989
1985.954
1756.663
1545.153
1362.99
1217.14
1115.566
1060.411
1047.531
1065.382
1095.387
1119.777
1125.959
1112.458
1086.07
1054.949
1027.082
1002.141
974.556
942.063
901.709
855.283
808.377
760.89
713.288
665.324
614.496
562.731
511.664
461.758
414.336
368.636
323.841
280.133
237.305
195.647
155.738
117.457
80.641
45.159
10.535
-23.494
-56.963
-90.134
-123.339
-156.608
-189.885
-222.93
-255.184
-286.322
-316.223
-344.689
-371.56
-396.775
-420.291
-442.238
-462.923
-482.525
-501.124
-518.79
-535.53
-551.373
-566.377
-580.545
-593.845
-606.27
-617.831
-628.555
-638.501
-647.704
-656.178
-663.938
-670.987
-677.336
-683.007
-688.016
-692.381
-696.123
-699.26
-701.819
-703.827
-705.313
-706.301
-706.815
-706.877
-706.511
-705.747
-704.616
-703.148
-701.379
-699.34
-697.067
-694.596
-691.963
-689.205
-686.36
-683.464
-680.555
-677.671
-674.85
-672.13
-669.55
-667.144
-664.951
-663.003
-661.335
-659.98
-658.967
-658.325
-658.081
-658.258
-658.879
-659.961
-661.52
-663.571
-666.124
-669.185
-672.76
-676.85
-681.452
-686.562
-692.172
-698.272
-704.845
-711.876
-719.344
-727.226
-735.496
-744.128
-753.091
-762.353
-771.881
-781.641
-791.595
-801.707
-811.939
-822.252
-832.607
-842.966
-853.29
-863.542
-873.684
-883.681
-893.498
-903.101
-912.459
-921.541
-930.32
-938.768
-946.862
-954.579
-961.9
-968.806
-975.283
-981.317
-986.898
-992.018
-996.67
-1000.852
-1004.562
-1007.801
-1010.572
-1012.879
-1014.731
-1016.134
-1017.101
-1017.642
-1017.77
-1017.5
-1016.846
-1015.827
-1014.457
-1012.755
-1010.74
-1008.428
-1005.839
-1002.992
-999.905
-996.596
-993.085
-989.391
-985.53
-981.52
-977.38
-973.125
-968.773
-964.339
-959.838
-955.285
-950.694
-946.078
-941.45
-936.821
-932.204
-927.609
-923.046
-918.524
-914.052
-909.639
-905.291
-901.017
-896.822
-892.713
-888.695
-884.773
-880.952
-877.237
-873.631
-870.137
-866.759
-863.499
-860.358
-857.338
-854.438
-851.661
-849.003
-846.466
-844.046
-841.742
-839.549
-837.466
-835.486
-833.605
-831.817
-830.116
-828.494
-826.944
-825.458
-824.027
-822.642
-821.293
-819.971
-818.664
-817.363
-816.056
-814.732
-813.379
-811.986
-810.54
-809.03
-807.445
-805.773
-804.004
-802.126
-800.131
-798.007
-795.746
-793.339
-790.78
-788.06
-785.174
-782.117
-778.884
-775.473
-771.882
-768.109
-764.157
-760.025
-755.717
-751.235
-746.585
-741.771
-736.8
-731.679
-726.416
-721.019
-715.498
-709.864
-704.128
-698.3
-692.392
-686.416
-680.384
-674.308
-668.199
-662.069
-655.93
-649.792
-643.668
-637.567
-631.501
-625.48
-619.513
-613.609
-607.776
-602.021
-596.352
-590.773
-585.289
-579.904
-574.62
-569.442
-564.37
-559.405
-554.549
-549.801
-545.159
-540.624
-536.193
-531.862
-527.631
-523.495
-519.454
-515.504
-511.643
-507.87
-504.184
-500.584
-497.07
-493.643
-490.304
-487.053
-483.893
-480.827
-477.857
-474.989
-472.226
-469.573
-467.039
-464.632
-462.366
-460.254
-458.308
-456.541
-454.972
-453.615
-452.487
-451.602
-450.968
-450.594
-450.491
-450.672
-451.147
-451.924
-453.006
-454.392
-456.084
-458.077
-460.363
-462.927
-465.746
-468.801
-472.074
-475.56
-479.261
-483.181
-487.315
-491.656
-496.194
-500.918
-505.819
-510.883
-516.089
-521.408
-526.812
-532.275
-537.774
-543.282
-548.778
-554.201
-559.438
-564.423
-569.127
-573.578
-577.909
-582.218
-586.511
-590.861
-595.397
-600.143
-605.088
-610.026
-614.411
-617.823
-620.056
-620.881
-620.208
-618.071
-614.369
-609.371
-603.895
-598.439
-593.429
-589.448
-586.538
-585.522
-587.664
-592.72
-600.697
-610.362
-620.087
-631.244
-643.866
-658.452
-675.122
-690.024
-702.155
-710.348
-711.566
-702.827
-675.363
-619.604
-531.417
-413.385
-276.922
-136.353
-1.219
125.769
245.823
356.431
444.94
489.432
466.629
364.103
189.004
-33.3
-266.597
-476.145
-640.453
-751.779
-813.707
-836.496
-827.951
-794.592
-743.364
-680.499
-615.624
-558.429
-513.947
-483.039
-462.179
-444.679
-425.964
-405.218
-381.443
-355.847
-328.847
-297.524
-262.461
-223.826
-181.671
-138.617
-94.134
-47.74
-0.338
48.022
95.688
140.955
183.439
222.796
259.105
292.731
323.719
352.185
378.465
402.81
425.462
446.68
466.588
485.275
502.904
519.653
535.693
551.2
566.218
580.625
594.265
607.075
619.05
630.229
640.813
650.985
660.951
671.171
681.992
693.352
705.018
716.477
726.787
735.175
740.95
743.144
741.175
735.026
724.863
711.329
695.494
678.124
659.958
641.968
624.773
608.687
593.906
580.197
567.123
554.518
542.228
530.013
517.787
505.486
493.101
480.851
469.018
457.75
447.141
437.243
428.045
419.562
411.818
404.77
398.358
392.549
387.326
382.724
378.819
375.686
373.407
372.049
371.642
372.236
373.916
376.717
380.666
385.727
391.739
398.637
406.476
415.292
425.15
436.136
448.283
461.804
477.107
494.275
513.082
533.135
553.792
574.446
594.624
613.545
630.218
644.117
655.14
663.575
670.142
675.405
679.702
683.609
687.875
692.956
699.048
705.984
713.218
720.434
727.586
734.605
741.397
747.898
754.06
759.989
765.973
772.162
778.557
785.088
791.605
798.016
804.3
810.419
816.31
821.921
827.2
832.117
836.692
840.936
844.846
848.418
851.637
854.514
857.088
859.418
861.575
863.607
865.544
867.407
869.212
870.975
872.714
874.433
876.123
877.781
879.41
881.017
882.615
884.207
885.786
887.347
888.882
890.39
891.879
893.351
894.812
896.265
897.717
899.177
900.652
902.143
903.648
905.168
906.706
908.274
909.892
911.562
913.275
915.013
916.75
918.457
920.11
921.669
923.08
924.312
925.351
926.203
926.892
927.407
927.705
927.729
927.421
926.75
925.727
924.367
922.661
920.624
918.293
915.703
912.896
909.819
906.276
902.034
896.962
891.013
884.226
876.826
869.071
861.227
853.748
847.055
841.267
836.326
831.947
827.346
821.675
814.263
804.304
791.147
774.576
754.514
731.174
705.506
678.589
651.25
624.374
598.688
574.618
552.586
532.831
514.866
497.966
481.641
465.431
448.993
432.118
414.498
395.841
376.346
356.499
336.615
316.931
297.569
278.537
259.961
242.047
224.784
207.992
191.558
175.406
159.549
144.109
129.126
114.572
100.455
86.8
73.629
60.97
48.809
37.082
25.741
14.752
4.087
-6.265
-16.327
-26.136
-35.726
-45.132
-54.386
-63.516
-72.549
-81.522
-90.467
-99.413
-108.386
-117.408
-126.499
-135.683
-144.979
-154.407
-163.982
-173.715
-183.615
-193.689
-203.943
-214.382
-225.008
-235.821
-246.823
-258.014
-269.39
-280.941
-292.653
-304.503
-316.472
-328.546
-340.719
-352.989
-365.365
-377.865
-390.509
-403.319
-416.306
-429.467
-442.785
-456.224
-469.746
-483.306
-496.878
-510.454
-524.026
-537.581
-551.097
-564.542
-577.863
-590.985
-603.825
-616.284
-628.286
-639.784
-650.771
-661.284
-671.382
-681.156
-690.664
-699.927
-708.957
-717.758
-726.331
-734.687
-742.843
-750.823
-758.684
-766.511
-774.364
-782.275
-790.216
-798.098
-805.797
-813.151
-820.024
-826.313
-831.926
-836.787
-840.835
-844.036
-846.355
-847.743
-848.184
-847.668
-846.247
-844.09
-841.375
-838.219
-834.847
-831.54
-828.284
-824.899
-820.975
-815.662
-808.261
-798.283
-784.971
-767.621
-746.093
-720.509
-691.539
-660.714
-629.272
-598.262
-569.368
-544.169
-523.697
-508.938
-499.436
-492.858
-487.341
-480.523
-470.699
-458.593
-443.199
-422.187
-391.034
-340.332
-263.208
-157.162
-23.265
129.006
290.696
457.591
624.278
787.776
939.528
1059.197
1125.136
1118.136
1030.401
874.485
675.419
463.659
267.218
102.642
-21.625
-103.093
-144.081
-146.85
-119.305
-73.827
-22.963
18.504
44.243
56.402
60.077
65.053
75.144
87.251
96.823
97.189
85.772
64.788
37.269
6.728
-24.358
-54.912
-83.947
-110.483
-134.081
-154.835
-173.13
-189.481
-204.476
-218.656
-232.641
-247.144
-262.436
-278.377
-294.673
-310.939
-326.839
-342.123
-356.481
-369.535
-381.065
-390.996
-399.328
-406.13
-411.437
-415.238
-417.547
-418.417
-417.897
-416.042
-412.907
-408.514
-402.888
-396.065
-388.079
-378.967
-368.763
-357.488
-345.157
-331.8
-317.455
-302.167
-285.985
-268.955
-251.118
-232.516
-213.191
-193.189
-172.559
-151.348
-129.607
-107.385
-84.739
-61.726
-38.408
-14.845
8.908
32.796
56.766
80.763
104.733
128.626
152.39
175.975
199.33
222.404
245.15
267.518
289.465
310.946
331.921
352.349
372.193
391.419
409.994
427.886
445.067
461.511
477.194
492.094
506.192
519.472
531.921
543.527
554.282
564.181
573.222
581.404
588.732
595.21
600.849
605.659
609.656
612.857
615.282
616.953
617.896
618.139
617.712
616.646
614.976
612.738
609.969
606.706
602.991
598.863
594.363
589.534
584.418
579.055
573.489
567.759
561.906
555.968
549.983
543.989
538.021
532.113
526.3
520.611
515.077
509.724
504.578
499.661
494.993
490.592
486.472
482.645
479.122
475.911
473.018
470.446
468.197
466.272
464.666
463.377
462.398
461.721
461.335
461.232
461.4
461.827
462.501
463.409
464.542
465.889
467.44
469.182
471.102
473.19
475.432
477.816
480.328
482.95
485.666
488.465
491.339
494.281
497.286
500.349
503.467
506.641
509.872
513.16
516.5
519.88
523.291
526.724
530.18
533.667
537.189
540.739
544.31
547.894
551.475
555.031
558.524
561.888
565.072
568.038
570.76
573.236
575.465
577.445
579.175
580.645
581.837
582.743
583.359
583.676
583.723
583.528
583.139
582.635
582.088
581.568
581.091
580.576
579.858
578.756
577.17
575.117
572.649
569.706
566.254
562.398
558.379
554.504
550.81
546.889
542.186
536.351
529.121
520.199
509.119
495.268
478.388
458.843
437.322
414.407
390.525
366.029
341.422
317.386
294.392
272.519
251.512
231.131
211.309
192.092
173.519
155.514
138.011
121.036
104.755
89.306
74.7
60.86
47.612
34.828
22.437
10.354
-1.51
-13.238
-24.899
-36.553
-48.223
-59.952
-71.805
-83.809
-95.991
-108.356
-120.862
-133.449
-146.024
-158.504
-170.83
-182.968
-194.901
-206.615
-218.107
-229.371
-240.414
-251.233
-261.806
-272.118
-282.153
-291.909
-301.408
-310.686
-319.792
-328.77
-337.659
-346.485
-355.266
-364.013
-372.733
-381.425
-390.083
-398.704
-407.294
-415.863
-424.421
-432.976
-441.527
-450.072
-458.606
-467.123
-475.616
-484.077
-492.502
-500.888
-509.233
-517.54
-525.813
-534.052
-542.259
-550.433
-558.57
-566.667
-574.719
-582.72
-590.663
-598.542
-606.352
-614.085
-621.737
-629.301
-636.768
-644.132
-651.383
-658.511
-665.506
-672.356
-679.05
-685.576
-691.922
-698.075
-704.025
-709.756
-715.258
-720.519
-725.524
-730.262
-734.72
-738.886
-742.749
-746.299
-749.526
-752.423
-754.98
-757.194
-759.059
-760.575
-761.738
-762.548
-763.007
-763.118
-762.888
-762.323
-761.432
-760.226
-758.718
-756.926
-754.87
-752.572
-750.056
-747.348
-744.474
-741.466
-738.353
-735.162
-731.922
-728.658
-725.398
-722.172
-719.007
-715.929
-712.966
-710.137
-707.467
-704.976
-702.675
-700.568
-698.659
-696.95
-695.45
-694.18
-693.154
-692.383
-691.878
-691.647
-691.697
-692.024
-692.601
-693.384
-694.333
-695.416
-696.623
-697.954
-699.38
-700.86
-702.344
-703.759
-705.066
-706.212
-707.081
-707.614
-707.848
-707.897
-708.009
-708.448
-709.33
-710.793
-713.059
-716.159
-719.925
-723.996
-727.726
-730.543
-732.188
-732.366
-730.592
-726.656
-720.787
-713.39
-705.218
-697.186
-689.627
-683.503
-681.164
-683.547
-690.385
-700.522
-709.796
-716.476
-722.681
-729.991
-742.121
-760.557
-780.554
-797.137
-802.375
-785.147
-738.473
-657.503
-541.51
-399.379
-241.076
-74.753
91.298
253.465
403.949
525.749
598.787
601.86
524.668
374.516
172.002
-52.193
-268.653
-456.501
-602.471
-702.902
-761.009
-781.353
-772.229
-744.222
-705.479
-665.987
-633.561
-608.851
-591.133
-575.648
-555.822
-531.072
-503.148
-475.752
-454.012
-439.222
-430.218
-425.082
-421.341
-417.793
-414.234
-410.372
-405.934
-400.471
-393.461
-384.845
-374.793
-363.548
-351.433
-338.74
-325.788
-312.977
-300.71
-289.097
-278.002
-267.167
-256.255
-245.013
-233.248
-220.734
-207.255
-192.723
-177.161
-160.665
-143.387
-125.465
-107.052
-88.36
-69.611
-51.045
-32.898
-15.41
1.16
16.591
30.684
43.273
54.266
63.617
71.295
77.287
81.594
84.207
85.196
84.706
82.876
79.878
75.89
71.106
65.792
60.219
54.638
49.268
44.261
39.717
35.738
32.427
29.862
28.147
27.317
27.326
28.152
29.753
32.079
35.058
38.559
42.412
46.467
50.623
54.807
58.991
63.148
67.244
71.294
75.286
79.241
83.23
87.289
91.446
95.736
100.194
104.857
109.779
114.969
120.381
125.993
131.751
137.597
143.45
149.142
154.513
159.392
163.582
166.905
169.169
170.155
169.744
167.94
164.82
160.596
155.452
149.446
142.715
135.393
127.498
119.027
109.784
99.436
87.966
75.598
62.615
49.543
37.064
25.961
17.39
12.571
12.312
17.222
27.696
43.703
64.939
90.741
119.943
151.306
183.835
216.549
248.559
279.334
308.519
336.081
362.547
388.317
413.438
438.231
462.261
484.728
506.035
525.726
544.312
562.859
578.815
590.217
594.342
588.141
574.278
555.403
533.97
513.182
491.866
469.085
445.387
420.412
395.298
370.995
347.105
323.631
300.563
277.679
254.972
232.451
210.095
188.118
166.959
146.956
128.252
110.897
94.868
80.141
66.764
54.744
44.007
34.556
26.466
19.87
14.984
11.98
10.938
11.888
14.849
19.835
26.909
36.176
47.703
61.515
77.624
96.05
116.722
139.429
163.892
189.713
216.543
244.214
272.491
301.036
329.665
358.247
386.63
414.769
442.271
468.343
492.486
514.37
533.571
549.784
562.57
571.341
576.212
577.814
576.409
572.196
565.369
555.983
544.666
532.327
519.215
505.253
490.629
475.511
460.299
445.547
431.082
416.504
401.791
387.001
372.234
357.688
343.246
328.666
314.191
300.122
286.661
274.064
262.37
251.51
241.6
232.785
225.066
218.487
213.078
208.809
205.742
203.923
203.328
203.942
205.717
208.561
212.363
216.962
222.202
227.971
234.143
240.592
247.184
253.753
260.139
266.217
271.865
276.986
281.511
285.35
288.438
290.73
292.174
292.797
292.639
291.721
290.087
287.796
284.912
281.556
277.874
273.965
269.914
265.789
261.625
257.493
253.468
249.621
246.039
242.762
239.807
237.203
234.965
233.085
231.542
230.269
229.159
228.152
227.211
226.31
225.451
224.616
223.778
222.918
222.018
221.066
220.061
218.992
217.848
216.638
215.382
214.119
212.911
211.797
210.8
209.935
209.207
208.619
208.178
207.878
207.705
207.651
207.708
207.873
208.144
208.514
208.969
209.492
210.061
210.656
211.262
211.863
212.446
212.998
213.507
213.966
214.371
214.716
214.994
215.198
215.316
215.341
215.264
215.078
214.773
214.344
213.782
213.082
212.241
211.255
210.12
208.835
207.396
205.803
204.055
202.15
200.09
197.875
195.506
192.985
190.315
187.502
184.55
181.466
178.26
174.941
171.522
168.015
164.434
160.789
157.094
153.364
149.61
145.846
142.083
138.332
134.61
130.935
127.325
123.802
120.385
117.094
113.953
110.983
108.208
105.645
103.305
101.203
99.356
97.784
96.516
95.567
94.946
94.655
94.694
95.059
95.738
96.699
97.893
99.269
100.793
102.448
104.232
106.138
108.156
110.272
112.473
114.773
117.191
119.736
122.405
125.201
128.139
131.275
134.699
138.482
142.655
147.208
152.103
157.31
162.784
168.462
174.246
179.985
185.54
190.813
195.723
200.194
204.132
207.399
209.84
211.352
211.882
211.41
209.939
207.463
204.028
199.733
194.747
189.302
183.579
177.724
171.904
166.23
160.786
155.622
150.654
145.761
140.912
136.027
131.002
125.884
120.679
115.542
110.953
107.203
104.392
102.722
102.246
102.911
104.904
108.054
111.526
114.935
118.197
120.91
123.129
124.233
122.157
116.518
108.357
99.317
92.845
89.657
87.508
84.253
77.247
66.956
56.813
51.293
56.313
77.871
122.893
196.125
298.897
428.905
577.982
738.641
904.409
1067.427
1219.824
1347.066
1428.657
1445.882
1385.949
1249.113
1051.889
820.153
582.259
363.789
181.544
44.54
-43.441
-84.274
-84.7
-57.289
-18.631
14.404
29.411
24.706
6.973
-12.786
-23.643
-22.805
-14.198
-4.275
0.268
-2.654
-11.296
-22.982
-35.27
-47.291
-58.864
-69.81
-79.808
-88.203
-94.808
-99.863
-103.497
-105.961
-107.692
-109.051
-110.583
-112.932
-116.293
-120.627
-125.817
-131.573
-137.584
-143.57
-149.176
-154.048
-158.013
-161.005
-163.024
-164.152
-164.452
-163.98
-162.819
-161.052
-158.747
-155.961
-152.754
-149.187
-145.339
-141.304
-137.151
-132.93
-128.673
-124.396
-120.103
-115.791
-111.444
-107.039
-102.554
-97.976
-93.291
-88.488
-83.55
-78.453
-73.177
-67.697
-61.99
-56.039
-49.825
-43.337
-36.565
-29.503
-22.15
-14.506
-6.573
1.65
10.161
18.956
28.03
37.375
46.979
56.83
66.912
77.203
87.679
98.315
109.081
119.945
130.873
141.83
152.777
163.674
174.481
185.153
195.649
205.922
215.928
225.622
234.958
243.891
252.377
260.373
267.838
274.73
281.013
286.65
291.607
295.855
299.364
302.11
304.071
305.227
305.564
305.068
303.732
301.551
298.526
294.658
289.956
284.431
278.096
270.971
263.075
254.434
245.076
235.029
224.328
213.007
201.104
188.659
175.712
162.307
148.487
134.298
119.784
104.992
89.967
74.756
59.404
43.955
28.455
12.945
-2.53
-17.931
-33.218
-48.353
-63.3
-78.026
-92.498
-106.686
-120.565
-134.107
-147.291
-160.096
-172.505
-184.502
-196.073
-207.209
-217.899
-228.139
-237.922
-247.248
-256.116
-264.527
-272.484
-279.992
-287.058
-293.688
-299.891
-305.678
-311.058
-316.043
-320.645
-324.877
-328.752
-332.283
-335.484
-338.37
-340.953
-343.25
-345.272
-347.035
-348.552
-349.835
-350.897
-351.751
-352.408
-352.879
-353.175
-353.307
-353.284
-353.116
-352.811
-352.377
-351.822
-351.153
-350.378
-349.503
-348.533
-347.475
-346.334
-345.116
-343.826
-342.468
-341.047
-339.569
-338.037
-336.456
-334.829
-333.161
-331.455
-329.715
-327.944
-326.146
-324.325
-322.483
-320.624
-318.753
-316.871
-314.982
-313.09
-311.199
-309.31
-307.428
-305.555
-303.694
-301.848
-300.021
-298.214
-296.43
-294.672
-292.94
-291.238
-289.566
-287.926
-286.318
-284.744
-283.203
-281.697
-280.225
-278.788
-277.385
-276.016
-274.682
-273.383
-272.117
-270.885
-269.687
-268.521
-267.388
-266.286
-265.216
-264.175
-263.165
-262.184
-261.23
-260.303
-259.403
-258.528
-257.677
-256.85
-256.045
-255.262
-254.5
-253.759
-253.039
-252.338
-251.659
-250.999
-250.36
-249.742
-249.145
-248.57
-248.016
-247.484
-246.974
-246.486
-246.021
-245.578
-245.157
-244.758
-244.381
-244.026
-243.693
-243.381
-243.092
-242.824
-242.578
-242.354
-242.153
-241.974
-241.819
-241.687
-241.579
-241.495
-241.436
-241.402
-241.394
-241.411
-241.453
-241.522
-241.616
-241.736
-241.882
-242.054
-242.252
-242.477
-242.727
-243.004
-243.307
-243.637
-243.994
-244.38
-244.793
-245.234
-245.704
-246.203
-246.73
-247.287
-247.872
-248.485
-249.125
-249.793
-250.487
-251.207
-251.951
-252.718
-253.508
-254.319
-255.149
-255.998
-256.864
-257.746
-258.643
-259.554
-260.477
-261.412
-262.358
-263.314
-264.278
-265.249
-266.227
-267.211
-268.199
-269.191
-270.185
-271.181
-272.179
-273.177
-274.177
-275.176
-276.177
-277.179
-278.183
-279.189
-280.199
-281.213
-282.233
-283.26
-284.296
-285.343
-286.402
-287.475
-288.563
-289.668
-290.792
-291.934
-293.097
-294.28
-295.485
-296.711
-297.958
-299.228
-300.521
-301.835
-303.171
-304.529
-305.906
-307.303
-308.718
-310.149
-311.592
-313.047
-314.508
-315.975
-317.443
-318.909
-320.369
-321.818
-323.253
-324.668
-326.059
-327.421
-328.747
-330.035
-331.279
-332.477
-333.624
-334.717
-335.755
-336.734
-337.655
-338.515
-339.315
-340.053
-340.729
-341.347
-341.906
-342.411
-342.865
-343.273
-343.641
-343.978
-344.296
-344.605
-344.917
-345.245
-345.603
-346.007
-346.471
-347.008
-347.628
-348.342
-349.159
-350.093
-351.152
-352.344
-353.676
-355.152
-356.772
-358.539
-360.444
-362.473
-364.612
-366.846
-369.165
-371.573
-374.07
-376.652
-379.32
-382.068
-384.889
-387.77
-390.679
-393.566
-396.386
-399.1
-401.689
-404.142
-406.432
-408.522
-410.364
-411.894
-413.062
-413.807
-414.027
-413.662
-412.738
-411.359
-409.743
-408.129
-406.676
-405.568
-405.062
-405.268
-406.092
-407.235
-408.141
-408.294
-407.41
-405.145
-400.97
-394.54
-385.868
-375.342
-363.847
-352.33
-341.379
-331.793
-324.879
-321.796
-323.448
-330.368
-342.145
-358.054
-376.866
-395.725
-410.9
-418.502
-416.708
-406.392
-388.135
-361.311
-319.913
-254.962
-162.05
-40.163
103.434
257.776
418.074
578.406
733.145
871.949
969.837
1001.893
950.492
811.275
605.367
365.777
125.415
-86.718
-257.556
-384.052
-465.133
-504.066
-504.366
-473.63
-426.452
-378.966
-345.512
-331.175
-331.337
-336.361
-335.421
-324.964
-308.171
-290.831
-279.503
-276.329
-279.39
-285.771
-292.586
-298.497
-303.427
-307.486
-310.601
-312.424
-312.916
-312.382
-311.086
-309.355
-307.474
-305.578
-304.014
-303.219
-303.305
-304.21
-305.755
-307.625
-309.576
-311.442
-313.013
-314.085
-314.582
-314.513
-313.987
-313.218
-312.371
-311.565
-310.901
-310.44
-310.225
-310.294
-310.672
-311.372
-312.415
-313.819
-315.579
-317.679
-320.082
-322.747
-325.611
-328.57
-331.517
-334.344
-336.937
-339.235
-341.213
-342.792
-343.839
-344.155
-343.483
-341.643
-338.573
-334.183
-328.271
-320.656
-311.266
-300.245
-287.847
-274.084
-258.611
-240.906
-220.588
-197.396
-171.003
-140.866
-106.372
-67.279
-23.944
22.807
72.218
123.696
176.634
230.321
283.908
336.73
388.59
439.654
489.988
539.486
587.923
634.996
680.573
724.561
766.696
806.672
844.266
879.355
911.979
942.269
970.284
996.066
1019.665
1041.116
1060.494
1077.888
1093.361
1107.04
1119.046
1129.482
1138.484
1146.115
1152.363
1157.231
1160.691
1162.717
1163.329
1162.529
1160.292
1156.696
1151.906
1146.161
1139.735
1132.742
1125.154
1116.979
1108.33
1099.385
1090.27
1080.83
1070.751
1059.9
1048.441
1036.738
1025.083
1013.591
1002.283
991.522
982.026
974.493
969.41
966.743
966.114
967.071
969.128
971.442
972.676
971.158
964.923
952.466
932.978
906.09
871.923
830.965
784.083
732.719
678.919
624.573
571.003
518.971
468.595
419.985
373.358
328.632
285.519
243.922
204.125
167.056
134.142
106.362
84.305
68.58
59.617
57.606
62.445
73.303
88.945
108.662
131.842
157.673
185.339
213.889
242.479
270.849
298.935
326.207
352.285
377.066
400.577
423.272
445.513
467.215
488.322
509.07
529.578
549.897
569.971
589.353
607.748
625.144
641.469
656.646
670.66
683.458
695.116
705.939
716.167
726.006
735.665
745.233
754.769
764.331
773.9
783.42
792.835
802.061
811.027
819.699
828.043
836.041
843.666
850.86
857.54
863.593
868.917
873.449
877.148
879.992
881.978
883.107
883.406
882.927
881.73
879.863
877.367
874.276
870.632
866.499
861.947
857.058
851.908
846.557
841.059
835.462
829.799
824.103
818.394
812.683
806.987
801.317
795.678
790.08
784.523
779
773.497
767.99
762.43
756.775
750.979
744.997
738.808
732.39
725.717
718.769
711.53
703.996
696.193
688.155
679.882
671.382
662.665
653.748
644.712
635.655
626.645
617.754
609.022
600.44
592.039
583.872
575.856
567.828
559.578
550.835
541.503
531.638
521.149
509.819
497.521
484.202
469.89
454.702
438.374
420.353
400.33
378.252
354.106
327.841
299.267
268.103
234.557
199.218
162.429
124.205
84.39
42.978
0.383
-42.7
-85.842
-128.832
-171.221
-212.173
-250.471
-285.079
-315.557
-341.881
-364.065
-382.127
-396.216
-406.777
-414.761
-421.16
-426.67
-431.829
-437.171
-443.333
-451.153
-461.56
-475.172
-492.367
-513.421
-538.461
-567.433
-600.031
-635.513
-672.717
-710.552
-748.213
-785.076
-820.709
-854.818
-887.205
-917.975
-947.577
-976.383
-1004.52
-1031.983
-1058.638
-1084.334
-1108.995
-1132.489
-1154.596
-1175.194
-1194.294
-1212.004
-1228.521
-1244.043
-1258.723
-1272.664
-1285.942
-1298.613
-1310.723
-1322.316
-1333.405
-1343.961
-1353.932
-1363.284
-1371.975
-1379.952
-1387.122
-1393.304
-1398.299
-1401.931
-1404.04
-1404.56
-1403.488
-1400.806
-1396.518
-1390.64
-1383.193
-1374.294
-1364.134
-1352.833
-1340.49
-1327.264
-1313.366
-1299.219
-1285.392
-1272.342
-1260.409
-1249.813
-1240.704
-1233.188
-1227.244
-1222.604
-1218.684
-1214.848
-1210.669
-1205.806
-1199.886
-1192.809
-1184.547
-1175.789
-1168.439
-1163.246
-1160.128
-1158.222
-1154.826
-1150.823
-1149.336
-1152.248
-1162.638
-1177.921
-1192.032
-1202.356
-1204.309
-1195.27
-1172.143
-1125.578
-1048.753
-938.638
-798.848
-640.653
-474.43
-307.445
-143.459
12.019
146.72
241.46
275.242
237.378
130.077
-28.65
-210.691
-391.25
-548.916
-672.706
-760.268
-810.635
-827.511
-813.868
-775.313
-721.663
-662.969
-612.005
-574.776
-550.068
-533.219
-514.123
-487.963
-456.339
-422.731
-393.349
-371.099
-354.706
-342.075
-330.87
-320.08
-309.598
-299.341
-289.075
-278.184
-266.482
-254.241
-241.547
-228.551
-215.546
-202.678
-190.342
-179.126
-169.171
-160.406
-152.715
-145.797
-139.428
-133.497
-127.763
-121.946
-115.907
-109.563
-102.912
-96.06
-89.055
-81.916
-74.691
-67.421
-60.155
-52.95
-45.845
-38.874
-32.057
-25.401
-18.913
-12.592
-6.426
-0.401
5.509
11.343
17.129
22.891
28.652
34.433
40.26
46.168
52.19
58.354
64.685
71.202
77.922
84.86
92.022
99.413
107.036
114.894
122.998
131.353
139.958
148.8
157.86
167.105
176.493
185.976
195.499
205.018
214.494
223.905
233.243
242.504
251.685
260.767
269.714
278.49
287.067
295.424
303.546
311.442
319.135
326.661
334.072
341.393
348.621
355.715
362.595
369.16
375.291
380.892
385.897
390.245
393.888
396.776
398.858
400.067
400.325
399.532
397.571
394.358
389.853
384.07
377.08
368.996
359.972
350.144
339.63
328.534
316.945
304.948
292.626
280.07
267.379
254.677
242.114
229.82
217.902
206.424
195.406
184.836
174.664
164.851
155.368
146.197
137.338
128.8
120.594
112.736
105.242
98.108
91.31
84.825
78.631
72.722
67.11
61.818
56.881
52.329
48.189
44.475
41.192
38.333
35.883
33.821
32.116
30.743
29.685
28.922
28.441
28.222
28.241
28.474
28.893
29.471
30.178
30.988
31.878
32.827
33.818
34.836
35.873
36.917
37.959
38.989
39.999
40.978
41.919
42.816
43.66
44.447
45.175
45.841
46.446
46.991
47.476
47.906
48.282
48.609
48.891
49.132
49.337
49.51
49.657
49.782
49.89
49.987
50.078
50.166
50.257
50.354
50.462
50.582
50.719
50.874
51.049
51.245
51.464
51.707
51.975
52.268
52.587
52.931
53.301
53.696
54.115
54.557
55.02
55.502
56.003
56.519
57.051
57.595
58.152
58.719
59.296
59.881
60.474
61.075
61.682
62.295
62.914
63.54
64.171
64.809
65.454
66.107
66.768
67.438
68.12
68.812
69.519
70.239
70.976
71.731
72.506
73.302
74.121
74.966
75.837
76.736
77.666
78.626
79.62
80.647
81.708
82.805
83.936
85.103
86.305
87.543
88.814
90.12
91.458
92.829
94.232
95.666
97.13
98.623
100.144
101.693
103.269
104.87
106.495
108.144
109.816
111.51
113.224
114.959
116.715
118.49
120.286
122.102
123.94
125.8
127.682
129.589
131.522
133.484
135.477
137.504
139.568
141.673
143.824
146.025
148.28
150.592
152.965
155.404
157.913
160.494
163.151
165.888
168.706
171.609
174.599
177.679
180.848
184.106
187.453
190.886
194.402
197.996
201.661
205.39
209.175
213.006
216.873
220.762
224.663
228.564
232.451
236.313
240.138
243.91
247.618
251.251
254.798
258.248
261.593
264.819
267.921
270.902
273.765
276.511
279.139
281.637
284.001
286.231
288.328
290.289
292.116
293.808
295.379
296.868
298.317
299.761
301.23
302.724
304.243
305.806
307.452
309.227
311.175
313.324
315.683
318.304
321.266
324.557
328.078
331.632
334.917
337.702
339.882
341.294
341.74
341.245
339.949
338.187
336.66
335.933
336.339
338.379
342.539
348.918
357.507
367.966
379.27
390.543
401.06
409.673
415.163
416.609
413.209
404.564
391.94
377.64
363.994
354.198
349.386
347.919
349.644
355.78
372.584
411.567
481.525
586.634
721.759
874.542
1034.193
1192.203
1345.146
1488.43
1608.497
1684.982
1694.111
1621.824
1472.375
1267.792
1042.793
829.519
649.724
512.832
417.15
358.91
335.169
342.588
375.651
423.995
473.313
510.713
531.333
538.232
540.457
548.069
564.003
585.456
606.692
621.454
628.182
628.839
626.128
622.814
620.331
619.002
619.189
621.316
625.469
631.432
638.846
647.276
656.226
665.292
674.017
681.828
688.524
694.208
699.067
703.454
707.726
712.111
716.879
722.321
728.562
735.639
743.545
752.166
761.408
771.209
781.476
792.117
803.059
814.205
825.458
836.719
847.867
858.798
869.429
879.674
889.468
898.751
907.468
915.579
923.059
929.867
935.964
941.308
945.854
949.573
952.44
954.429
955.514
955.669
954.868
953.089
950.309
946.504
941.65
935.721
928.703
920.591
911.384
901.084
889.689
877.198
863.62
848.981
833.312
816.649
799.033
780.514
761.162
741.07
720.328
699.014
677.188
654.893
632.181
609.108
585.734
562.114
538.282
514.263
490.095
465.824
441.492
417.122
392.701
368.174
343.511
318.722
293.857
268.995
244.212
219.591
195.234
171.271
147.871
125.19
103.346
82.428
62.522
43.738
26.226
10.171
-4.29
-17.079
-28.169
-37.567
-45.291
-51.389
-55.962
-59.168
-61.221
-62.307
-62.569
-62.126
-61.096
-59.624
-57.893
-56.107
-54.426
-52.978
-51.867
-51.183
-51.016
-51.425
-52.422
-53.969
-55.995
-58.461
-61.361
-64.707
-68.513
-72.78
-77.49
-82.627
-88.197
-94.21
-100.673
-107.588
-114.947
-122.758
-131.047
-139.86
-149.246
-159.233
-169.827
-181.023
-192.808
-205.168
-218.083
-231.522
-245.439
-259.792
-274.54
-289.645
-305.072
-320.777
-336.71
-352.817
-369.044
-385.34
-401.657
-417.95
-434.172
-450.281
-466.237
-482.005
-497.557
-512.858
-527.879
-542.589
-556.957
-570.957
-584.567
-597.763
-610.524
-622.835
-634.68
-646.049
-656.936
-667.334
-677.24
-686.654
-695.577
-704.013
-711.967
-719.446
-726.46
-733.017
-739.13
-744.812
-750.076
-754.936
-759.408
-763.507
-767.25
-770.652
-773.731
-776.501
-778.98
-781.182
-783.124
-784.82
-786.286
-787.537
-788.585
-789.444
-790.128
-790.647
-791.011
-791.231
-791.316
-791.272
-791.107
-790.826
-790.435
-789.938
-789.338
-788.638
-787.841
-786.949
-785.962
-784.881
-783.707
-782.439
-781.077
-779.62
-778.068
-776.419
-774.672
-772.827
-770.883
-768.838
-766.693
-764.445
-762.096
-759.644
-757.091
-754.436
-751.68
-748.825
-745.871
-742.821
-739.676
-736.439
-733.112
-729.698
-726.201
-722.624
-718.971
-715.246
-711.452
-707.594
-703.677
-699.705
-695.683
-691.615
-687.506
-683.361
-679.184
-674.98
-670.753
-666.507
-662.246
-657.973
-653.692
-649.405
-645.116
-640.826
-636.538
-632.253
-627.973
-623.699
-619.432
-615.171
-610.918
-606.671
-602.431
-598.194
-593.959
-589.725
-585.489
-581.249
-577.002
-572.745
-568.474
-564.186
-559.878
-555.545
-551.184
-546.79
-542.36
-537.89
-533.377
-528.819
-524.214
-519.559
-514.854
-510.097
-505.288
-500.427
-495.514
-490.55
-485.536
-480.475
-475.371
-470.227
-465.049
-459.844
-454.621
-449.391
-444.165
-438.954
-433.774
-428.637
-423.562
-418.562
-413.651
-408.843
-404.152
-399.589
-395.17
-390.905
-386.804
-382.876
-379.128
-375.57
-372.21
-369.049
-366.082
-363.304
-360.708
-358.296
-356.077
-354.059
-352.246
-350.638
-349.24
-348.053
-347.076
-346.293
-345.665
-345.141
-344.678
-344.236
-343.796
-343.343
-342.84
-342.234
-341.467
-340.464
-339.171
-337.559
-335.571
-333.149
-330.32
-327.163
-323.856
-320.701
-317.935
-315.707
-314.182
-313.452
-313.475
-314.18
-315.29
-316.277
-316.687
-316.138
-314.314
-311
-306.036
-299.456
-291.557
-283.502
-277.186
-273.378
-272.292
-273.25
-273.846
-275.088
-279.578
-288.338
-303.729
-322.896
-340.221
-354.426
-362.453
-362.076
-349.353
-312.777
-242.949
-135.992
3.347
160.807
322.81
480.402
630.161
769.981
890.671
974.504
1000.166
951.847
827.53
644.076
430.261
216.977
30.857
-116.305
-222.587
-290.384
-325.823
-329.964
-306.462
-264.442
-215.108
-175.53
-155.242
-153.206
-162.46
-168.81
-164.29
-149.573
-128.738
-109.575
-95.928
-86.93
-80.942
-75.641
-70.231
-65.348
-61.515
-59.04
-57.847
-57.504
-57.456
-57.255
-56.622
-55.396
-53.493
-50.981
-47.993
-44.792
-41.842
-39.389
-37.43
-35.888
-34.6
-33.418
-32.257
-30.956
-29.249
-26.992
-24.164
-20.802
-17.023
-12.912
-8.503
-3.855
0.939
5.798
10.639
15.393
20.042
24.569
28.956
33.196
37.279
41.21
45.014
48.722
52.36
55.948
59.501
63.03
66.557
70.107
73.701
77.36
81.104
84.945
88.902
92.989
97.22
101.602
106.139
110.832
115.683
120.693
125.865
131.198
136.689
142.334
148.125
154.056
160.115
166.287
172.555
178.901
185.302
191.736
198.179
204.605
210.986
217.294
223.5
229.574
235.483
241.198
246.686
251.916
256.858
261.481
265.757
269.657
273.155
276.228
278.853
281.01
282.681
283.852
284.509
284.643
284.247
283.316
281.85
279.85
277.32
274.269
270.707
266.647
262.107
257.104
251.659
245.797
239.543
232.923
225.968
218.708
211.175
203.402
195.424
187.273
178.986
170.597
162.139
153.647
145.154
136.692
128.29
119.977
111.782
103.73
95.844
88.145
80.654
73.387
66.359
59.584
53.071
46.829
40.863
35.179
29.777
24.657
19.819
15.256
10.965
6.936
3.161
-0.37
-3.669
-6.75
-9.627
-12.313
-14.826
-17.18
-19.392
-21.478
-23.454
-25.335
-27.138
-28.876
-30.565
-32.216
-33.842
-35.455
-37.064
-38.678
-40.306
-41.953
-43.626
-45.33
-47.067
-48.841
-50.653
-52.505
-54.396
-56.326
-58.293
-60.295
-62.329
-64.393
-66.481
-68.59
-70.715
-72.852
-74.995
-77.14
-79.282
-81.416
-83.539
-85.646
-87.734
-89.8
-91.842
-93.859
-95.851
-97.817
-99.76
-101.682
-103.585
-105.473
-107.351
-109.225
-111.1
-112.983
-114.881
-116.801
-118.753
-120.743
-122.782
-124.877
-127.039
-129.276
-131.599
-134.015
-136.534
-139.165
-141.916
-144.796
-147.812
-150.97
-154.277
-157.737
-161.356
-165.135
-169.076
-173.181
-177.447
-181.872
-186.453
-191.183
-196.056
-201.064
-206.196
-211.44
-216.785
-222.215
-227.715
-233.268
-238.856
-244.459
-250.058
-255.63
-261.155
-266.608
-271.966
-277.206
-282.302
-287.231
-291.967
-296.486
-300.763
-304.774
-308.497
-311.909
-314.988
-317.714
-320.069
-322.036
-323.598
-324.742
-325.456
-325.732
-325.561
-324.938
-323.861
-322.329
-320.343
-317.908
-315.031
-311.72
-307.986
-303.843
-299.307
-294.395
-289.128
-283.526
-277.615
-271.418
-264.962
-258.277
-251.391
-244.334
-237.137
-229.832
-222.451
-215.025
-207.585
-200.164
-192.791
-185.496
-178.308
-171.255
-164.361
-157.651
-151.148
-144.873
-138.842
-133.074
-127.582
-122.378
-117.472
-112.872
-108.582
-104.605
-100.943
-97.593
-94.552
-91.814
-89.372
-87.215
-85.332
-83.71
-82.336
-81.194
-80.267
-79.537
-78.988
-78.601
-78.357
-78.237
-78.223
-78.298
-78.442
-78.64
-78.876
-79.136
-79.406
-79.675
-79.932
-80.169
-80.38
-80.558
-80.702
-80.808
-80.878
-80.913
-80.917
-80.896
-80.856
-80.806
-80.757
-80.719
-80.705
-80.728
-80.801
-80.94
-81.158
-81.471
-81.894
-82.441
-83.128
-83.969
-84.979
-86.17
-87.554
-89.142
-90.944
-92.968
-95.218
-97.699
-100.411
-103.353
-106.524
-109.918
-113.527
-117.342
-121.349
-125.534
-129.881
-134.37
-138.978
-143.683
-148.458
-153.276
-158.109
-162.928
-167.701
-172.397
-176.984
-181.43
-185.703
-189.769
-193.595
-197.147
-200.394
-203.305
-205.848
-207.995
-209.718
-210.991
-211.793
-212.107
-211.918
-211.214
-209.986
-208.23
-205.944
-203.129
-199.788
-195.921
-191.531
-186.624
-181.209
-175.298
-168.903
-162.04
-154.722
-146.965
-138.789
-130.209
-121.239
-111.889
-102.168
-92.095
-81.698
-71.018
-60.1
-48.985
-37.718
-26.346
-14.912
-3.448
8.022
19.494
30.961
42.4
53.79
65.112
76.351
87.506
98.592
109.633
120.666
131.749
142.901
154.074
165.163
175.989
186.339
196.019
204.826
212.516
218.993
224.394
229.004
233.304
237.824
242.936
248.982
256.39
265.429
276.05
287.945
300.442
311.95
320.539
324.886
324.004
319.077
312.96
306.239
297.742
284.362
261.757
229.984
192.668
154.405
121.035
97.498
90.412
110.099
165.773
261.203
390.472
538.281
688.786
833.004
969.62
1101.161
1224.156
1321.979
1370.47
1347.266
1242.741
1069.082
853.73
629.299
424.69
254.649
124.124
33.242
-21.306
-39.506
-25.402
10.495
55.727
93.337
113.984
119.205
115.377
114.754
124.145
141.907
163.49
181.437
191.9
195.926
195.932
195.056
194.804
195.36
196.808
199.173
202.846
207.955
214.12
220.967
228.118
235.072
241.396
246.563
249.899
251.136
250.324
247.609
243.309
237.756
231.213
224.038
216.688
209.495
202.671
196.359
190.586
185.407
180.949
177.289
174.455
172.467
171.295
170.902
171.265
172.333
174.022
176.249
178.908
181.879
185.096
188.511
192.09
195.819
199.653
203.557
207.521
211.555
215.676
219.907
224.261
228.752
233.416
238.296
243.439
248.901
254.71
260.882
267.429
274.354
281.66
289.349
297.407
305.809
314.533
323.559
332.867
342.44
352.247
362.253
372.421
382.713
393.092
403.52
413.959
424.369
434.712
444.951
455.049
464.971
474.68
484.137
493.302
502.135
510.6
518.658
526.274
533.411
540.037
546.122
551.64
556.564
560.875
564.55
567.574
569.933
571.617
572.616
572.926
572.545
571.474
569.72
567.289
564.193
560.448
556.069
551.078
545.497
539.352
532.672
525.485
517.823
509.722
501.217
492.344
483.143
473.652
463.911
453.96
443.84
433.59
423.249
412.857
402.449
392.064
381.735
371.497
361.382
351.42
341.64
332.067
322.728
313.644
304.835
296.319
288.111
280.224
272.669
265.452
258.581
252.057
245.882
240.053
234.568
229.42
224.602
220.105
215.917
212.026
208.418
205.078
201.991
199.139
196.505
194.071
191.82
189.732
187.79
185.976
184.271
182.657
181.118
179.637
178.197
176.783
175.381
173.976
172.556
171.109
169.624
168.092
166.503
164.851
163.129
161.333
159.457
157.498
155.456
153.327
151.112
148.812
146.428
143.96
141.414
138.79
136.093
133.327
130.496
127.605
124.659
121.661
118.618
115.534
112.414
109.264
106.089
102.893
99.682
96.459
93.23
89.998
86.768
83.543
80.326
77.119
73.927
70.75
67.591
64.452
61.333
58.237
55.164
52.115
49.09
46.089
43.112
40.159
37.229
34.323
31.439
28.576
25.735
22.913
20.111
17.327
14.561
11.81
9.074
6.351
3.64
0.939
-1.754
-4.439
-7.12
-9.796
-12.47
-15.143
-17.818
-20.495
-23.178
-25.868
-28.567
-31.277
-34.001
-36.742
-39.502
-42.284
-45.091
-47.926
-50.793
-53.696
-56.638
-59.623
-62.657
-65.744
-68.889
-72.097
-75.373
-78.723
-82.151
-85.664
-89.267
-92.965
-96.765
-100.672
-104.692
-108.831
-113.095
-117.489
-122.02
-126.691
-131.51
-136.479
-141.604
-146.888
-152.336
-157.95
-163.732
-169.686
-175.811
-182.108
-188.577
-195.217
-202.024
-208.996
-216.128
-223.415
-230.852
-238.429
-246.141
-253.976
-261.926
-269.979
-278.123
-286.346
-294.632
-302.967
-311.334
-319.718
-328.1
-336.463
-344.786
-353.051
-361.237
-369.325
-377.293
-385.12
-392.786
-400.269
-407.548
-414.602
-421.412
-427.956
-434.218
-440.177
-445.817
-451.12
-456.073
-460.66
-464.867
-468.682
-472.094
-475.094
-477.671
-479.819
-481.532
-482.806
-483.637
-484.025
-483.969
-483.472
-482.536
-481.167
-479.37
-477.152
-474.523
-471.491
-468.068
-464.266
-460.098
-455.579
-450.724
-445.548
-440.068
-434.3
-428.261
-421.968
-415.439
-408.689
-401.738
-394.602
-387.299
-379.848
-372.266
-364.57
-356.78
-348.911
-340.982
-333.01
-325.009
-316.997
-308.989
-301
-293.046
-285.143
-277.306
-269.55
-261.891
-254.346
-246.931
-239.663
-232.558
-225.631
-218.901
-212.383
-206.091
-200.038
-194.239
-188.703
-183.442
-178.466
-173.783
-169.401
-165.327
-161.563
-158.112
-154.97
-152.127
-149.57
-147.289
-145.273
-143.521
-142.029
-140.79
-139.799
-139.056
-138.549
-138.272
-138.2
-138.285
-138.487
-138.768
-139.1
-139.482
-139.898
-140.318
-140.702
-140.995
-141.152
-141.142
-140.908
-140.352
-139.438
-138.204
-136.789
-135.456
-134.431
-133.858
-133.887
-134.724
-136.472
-139.031
-142.092
-145.099
-147.502
-148.971
-149.201
-147.72
-144.176
-138.569
-131.188
-122.76
-114.216
-106.195
-99.374
-94.848
-93.783
-97.112
-105.438
-118.814
-135.903
-154.437
-172.216
-186.078
-194.653
-199.33
-199.287
-192.602
-173.954
-132.485
-61.507
40.812
171.393
319.859
478.512
642.715
806.66
962.49
1093.001
1173.388
1181.101
1104.685
951.045
745.465
521.533
308.784
126.382
-20.002
-131.884
-211.123
-258.95
-273.833
-259.043
-223.853
-180.097
-143.063
-119.732
-108.674
-104.914
-98.355
-84.775
-66.575
-47.581
-33.97
-28.454
-29.328
-34.144
-40.249
-46.158
-51.64
-56.565
-60.532
-62.916
-63.534
-62.661
-60.565
-57.629
-54.227
-50.598
-47.236
-44.74
-43.319
-42.927
-43.396
-44.394
-45.628
-46.914
-47.982
-48.527
-48.394
-47.519
-45.91
-43.678
-40.904
-37.636
-33.945
-29.904
-25.572
-21.015
-16.296
-11.461
-6.572
-1.676
3.196
8.019
12.784
17.491
22.146
26.77
31.386
36.014
40.671
45.37
50.129
54.971
59.926
65.022
70.289
75.75
81.428
87.344
93.513
99.943
106.643
113.615
120.868
128.417
136.272
144.433
152.893
161.635
170.633
179.851
189.249
198.776
208.393
218.067
227.781
237.533
247.32
257.14
266.972
276.779
286.525
296.182
305.727
315.142
324.431
333.612
342.719
351.802
360.879
369.932
378.907
387.703
396.215
404.332
411.959
419.023
425.462
431.224
436.26
440.533
443.968
446.455
447.866
448.048
446.903
444.395
440.536
435.399
429.079
421.684
413.326
404.115
394.133
383.434
372.063
360.04
347.45
334.449
321.204
307.915
294.735
281.756
269.049
256.651
244.573
232.81
221.347
210.152
199.241
188.672
178.517
168.88
159.79
151.196
143.049
135.284
127.857
120.767
114.002
107.545
101.41
95.622
90.218
85.248
80.717
76.585
72.804
69.302
66.056
63.099
60.452
58.129
56.139
54.469
53.119
52.106
51.419
51.026
50.89
50.968
51.236
51.699
52.36
53.224
54.278
55.484
56.814
58.247
59.759
61.333
62.944
64.559
66.159
67.743
69.308
70.853
72.373
73.852
75.281
76.654
77.967
79.221
80.417
81.551
82.626
83.642
84.605
85.52
86.389
87.209
87.981
88.704
89.379
90.009
90.594
91.135
91.631
92.086
92.502
92.879
93.22
93.524
93.792
94.027
94.228
94.398
94.537
94.646
94.725
94.777
94.8
94.796
94.765
94.706
94.621
94.51
94.373
94.21
94.022
93.81
93.572
93.311
93.027
92.72
92.391
92.041
91.672
91.285
90.881
90.462
90.029
89.583
89.125
88.657
88.18
87.696
87.204
86.707
86.206
85.702
85.196
84.689
84.182
83.675
83.17
82.667
82.167
81.671
81.179
80.693
80.212
79.739
79.273
78.815
78.367
77.929
77.502
77.087
76.685
76.295
75.92
75.56
75.215
74.887
74.577
74.285
74.013
73.761
73.53
73.322
73.137
72.976
72.84
72.73
72.647
72.593
72.567
72.571
72.605
72.671
72.768
72.897
73.057
73.249
73.472
73.727
74.012
74.327
74.671
75.042
75.441
75.865
76.313
76.784
77.275
77.785
78.313
78.855
79.411
79.979
80.556
81.141
81.731
82.326
82.922
83.518
84.11
84.699
85.28
85.853
86.415
86.964
87.499
88.019
88.522
89.008
89.473
89.918
90.34
90.74
91.116
91.466
91.792
92.091
92.365
92.612
92.833
93.028
93.195
93.336
93.448
93.531
93.585
93.608
93.6
93.561
93.49
93.389
93.258
93.097
92.907
92.689
92.444
92.172
91.876
91.554
91.21
90.844
90.46
90.062
89.651
89.233
88.81
88.387
87.968
87.557
87.158
86.775
86.413
86.079
85.78
85.523
85.317
85.171
85.097
85.105
85.205
85.405
85.712
86.132
86.672
87.336
88.127
89.044
90.089
91.263
92.57
94.012
95.586
97.291
99.12
101.07
103.139
105.318
107.594
109.956
112.391
114.898
117.483
120.144
122.871
125.652
128.469
131.301
134.126
136.905
139.576
142.083
144.366
146.394
148.154
149.627
150.783
151.594
152.014
152.022
151.617
150.768
149.449
147.657
145.402
142.772
139.908
136.915
133.905
130.981
128.147
125.389
122.638
119.701
116.405
112.601
108.065
102.613
96.206
88.861
80.73
72.081
63.042
53.639
43.906
33.813
23.143
11.473
-1.832
-17.534
-36.327
-58.742
-85.171
-115.895
-150.927
-189.961
-232.572
-278.37
-326.893
-377.634
-430.29
-484.641
-540.496
-597.882
-655.735
-711.347
-762.013
-805.006
-839.503
-867.123
-887.963
-900.352
-898.229
-872.577
-818.658
-735.934
-631.782
-518.06
-401.674
-287.658
-178.406
-79.658
-10.127
5.744
-55.399
-204.947
-430.634
-702.887
-984.184
-1240.551
-1454.46
-1620.825
-1742.191
-1824.562
-1869.167
-1880.602
-1868.592
-1844.888
-1825.949
-1819.322
-1822.042
-1826.263
-1818.373
-1791.841
-1748.606
-1693.667
-1635.711
-1579.728
-1526.019
-1474.029
-1422.31
-1370.805
-1321.011
-1274.133
-1230.809
-1190.923
-1153.802
-1118.724
-1084.944
-1051.682
-1018.384
-984.817
-951.036
-917.443
-884.673
-853.321
-823.997
-797.304
-773.481
-752.488
-734.184
-718.223
-704.158
-691.578
-679.982
-668.859
-657.916
-646.952
-635.809
-624.399
-612.595
-600.305
-587.553
-574.397
-560.898
-547.118
-533.081
-518.816
-504.409
-489.948
-475.519
-461.199
-447.03
-433.066
-419.386
-406.083
-393.256
-380.961
-369.199
-357.955
-347.194
-336.875
-326.957
-317.378
-308.058
-298.923
-289.909
-280.958
-272.03
-263.072
-254.023
-244.816
-235.382
-225.675
-215.669
-205.349
-194.711
-183.756
-172.496
-160.955
-149.169
-137.172
-124.992
-112.66
-100.203
-87.655
-75.057
-62.45
-49.88
-37.389
-25.019
-12.812
-0.81
10.95
22.429
33.593
44.413
54.858
64.896
74.497
83.632
92.277
100.407
108.004
115.047
121.524
127.424
132.742
137.475
141.624
145.194
148.192
150.629
152.52
153.882
154.733
155.099
155.002
154.473
153.54
152.235
150.592
148.645
146.431
143.984
141.343
138.543
135.621
132.613
129.554
126.479
123.422
120.414
117.487
114.669
111.988
109.469
107.137
105.011
103.11
101.451
100.049
98.913
98.055
97.481
97.195
97.201
97.499
98.086
98.959
100.112
101.538
103.226
105.167
107.348
109.755
112.375
115.192
118.19
121.354
124.666
128.109
131.667
135.323
139.061
142.863
146.714
150.6
154.505
158.416
162.32
166.204
170.058
173.871
177.632
181.334
184.969
188.53
192.01
195.406
198.713
201.927
205.048
208.073
211.001
213.833
216.568
219.209
221.755
224.209
226.573
228.848
231.038
233.145
235.172
237.122
238.996
240.798
242.529
244.193
245.79
247.322
248.792
250.199
251.546
252.833
254.062
255.232
256.345
257.401
258.399
259.341
260.226
261.053
261.822
262.532
263.184
263.777
264.31
264.785
265.201
265.558
265.858
266.101
266.287
266.418
266.495
266.518
266.49
266.411
266.285
266.113
265.899
265.645
265.354
265.031
264.679
264.3
263.898
263.477
263.04
262.591
262.134
261.671
261.209
260.749
260.298
259.859
259.436
259.032
258.651
258.294
257.964
257.663
257.39
257.149
256.938
256.761
256.618
256.51
256.437
256.4
256.398
256.43
256.495
256.589
256.71
256.854
257.018
257.199
257.394
257.599
257.809
258.022
258.231
258.431
258.615
258.778
258.91
259.005
259.054
259.05
258.985
258.855
258.654
258.38
258.031
257.604
257.097
256.51
255.841
255.084
254.237
253.294
252.248
251.098
249.843
248.487
247.036
245.497
243.879
242.196
240.459
238.678
236.857
234.992
233.084
231.147
229.204
227.284
225.432
223.683
222.076
220.66
219.47
218.527
217.839
217.387
217.144
217.105
217.279
217.704
218.424
219.447
220.763
222.354
224.172
226.163
228.262
230.343
232.291
234.033
235.526
236.792
237.883
238.799
239.507
239.95
240.04
239.739
239.039
237.912
236.36
234.409
232.107
229.624
227.177
224.901
222.891
221.167
219.666
218.425
217.559
217.08
216.948
217.01
216.963
216.603
215.831
214.413
212.008
208.366
203.334
197.112
190.304
183.34
176.343
169.362
162.303
154.67
145.618
133.67
116.696
92.818
60.653
19.094
-32.505
-94.015
-164.642
-242.652
-325.453
-410.576
-495.789
-579.036
-658.659
-733.485
-802.857
-866.902
-926.33
-981.843
-1034.191
-1083.969
-1131.549
-1177.424
-1221.97
-1265.188
-1306.965
-1346.999
-1384.732
-1419.742
-1451.574
-1479.254
-1501.578
-1517.431
-1525.548
-1525.029
-1515.507
-1496.75
-1468.986
-1433.231
-1391.03
-1344.111
-1294.61
-1244.594
-1195.676
-1149.334
-1106.526
-1067.46
-1031.862
-999.258
-968.8
-939.488
-910.559
-881.295
-851.309
-820.773
-790.193
-760.197
-731.516
-704.851
-680.67
-659.272
-640.658
-624.479
-610.057
-596.464
-582.807
-568.477
-553.003
-536.105
-517.804
-498.17
-478.25
-460.114
-445.364
-434.576
-425.853
-415.917
-402.747
-386.368
-370.999
-361.384
-360.298
-369.01
-382.057
-390.336
-382.046
-341.514
-259.3
-134.72
23.669
198.122
373.444
543.587
708.875
871.289
1024.158
1145.39
1207.102
1186.965
1078.131
898.446
679.779
456.018
256.723
95.43
-24.415
-102.638
-144.049
-149.873
-122.709
-72.282
-9.297
50.112
91.734
112.966
117.077
115.171
119.937
134.711
157.636
182.996
203.595
217.609
226.728
233.159
239.321
246.08
253.062
260.092
267.313
275.044
283.381
292.316
301.789
311.582
321.576
331.625
341.335
350.29
358.345
365.518
371.973
378.003
383.791
389.473
395.268
401.415
408.07
415.299
423.072
431.286
439.871
448.784
457.969
467.363
476.892
486.48
496.059
505.572
514.98
524.255
533.377
542.335
551.13
559.771
568.288
576.717
585.089
593.429
601.759
610.097
618.471
626.915
635.458
644.131
652.96
661.969
671.182
680.619
690.297
700.227
710.413
720.857
731.558
742.518
753.738
765.217
776.953
788.94
801.171
813.639
826.336
839.248
852.356
865.635
879.056
892.589
906.203
919.86
933.522
947.145
960.688
974.112
987.379
1000.452
1013.289
1025.842
1038.059
1049.896
1061.32
1072.301
1082.811
1092.825
1102.329
1111.323
1119.826
1127.855
1135.415
1142.489
1149.047
1155.067
1160.533
1165.432
1169.757
1173.475
1176.553
1178.967
1180.704
1181.751
1182.075
1181.615
1180.276
1177.986
1174.711
1170.46
1165.276
1159.198
1152.278
1144.58
1136.185
1127.221
1117.81
1108.047
1098.013
1087.796
1077.514
1067.334
1057.458
1048.071
1039.319
1031.306
1024.105
1017.782
1012.367
1007.874
1004.288
1001.536
999.561
998.337
997.847
998.072
998.96
1000.398
1002.221
1004.259
1006.34
1008.31
1010.036
1011.389
1012.259
1012.53
1012.08
1010.83
1008.719
1005.632
1001.405
995.916
989.099
981.007
971.877
961.945
951.298
940.033
928.247
915.844
902.724
888.732
873.439
856.6
838.436
819.345
799.994
781.446
764.594
750.299
739.702
733.516
731.853
734.552
740.948
749.985
760.898
772.933
785.072
796.655
807.327
816.834
825.341
833.175
840.371
846.972
853.164
858.999
864.549
869.927
875.026
879.701
883.978
887.839
891.253
894.197
896.534
898.161
899.12
899.52
899.475
899.206
898.95
898.939
899.464
900.605
902.218
903.959
905.289
905.427
903.383
898.169
888.78
874.424
854.646
829.282
798.443
762.646
722.808
679.844
634.738
588.408
541.464
494.371
447.448
400.657
353.738
306.538
258.92
210.858
162.564
114.297
66.414
19.454
-26.051
-69.677
-111.09
-150.116
-186.675
-220.731
-252.332
-281.533
-308.375
-332.902
-355.114
-374.996
-392.586
-407.948
-421.189
-432.504
-442.088
-450.142
-456.889
-462.505
-467.146
-470.933
-473.923
-476.177
-477.793
-478.865
-479.499
-479.822
-479.934
-479.961
-480.059
-480.315
-480.791
-481.534
-482.552
-483.887
-485.619
-487.824
-490.59
-493.995
-498.074
-502.865
-508.41
-514.705
-521.73
-529.413
-537.619
-546.256
-555.272
-564.619
-574.27
-584.17
-594.224
-604.362
-614.536
-624.7
-634.831
-644.898
-654.853
-664.688
-674.425
-684.116
-693.854
-703.695
-713.655
-723.75
-733.979
-744.353
-754.898
-765.61
-776.456
-787.406
-798.424
-809.48
-820.554
-831.6
-842.553
-853.338
-863.869
-874.08
-883.925
-893.359
-902.339
-910.83
-918.796
-926.218
-933.093
-939.411
-945.165
-950.347
-954.946
-958.965
-962.415
-965.309
-967.66
-969.484
-970.795
-971.611
-971.953
-971.84
-971.291
-970.328
-968.973
-967.25
-965.191
-962.829
-960.2
-957.342
-954.295
-951.099
-947.798
-944.436
-941.055
-937.699
-934.41
-931.23
-928.2
-925.36
-922.747
-920.399
-918.349
-916.627
-915.258
-914.269
-913.68
-913.509
-913.771
-914.465
-915.59
-917.145
-919.128
-921.541
-924.381
-927.631
-931.276
-935.304
-939.695
-944.434
-949.49
-954.81
-960.334
-966.013
-971.804
-977.683
-983.631
-989.6
-995.534
-1001.363
-1007.024
-1012.479
-1017.691
-1022.585
-1027.07
-1031.125
-1034.81
-1038.286
-1041.792
-1045.517
-1049.575
-1054.079
-1059.16
-1064.814
-1070.87
-1076.986
-1082.515
-1086.759
-1089.187
-1089.311
-1086.738
-1081.302
-1072.951
-1061.831
-1048.696
-1035.195
-1023.467
-1015.404
-1011.96
-1011.625
-1011.52
-1010.426
-1008.938
-1010.536
-1019.775
-1036.961
-1058.881
-1079.974
-1092.817
-1092.352
-1074.527
-1033.5
-964.671
-864.563
-732.231
-572.971
-394.947
-208.036
-25.32
138.164
264.484
333.612
329.824
248.159
97.106
-100.615
-314.366
-516.069
-685.72
-815.82
-908.096
-967.2
-997.592
-999.614
-975.456
-931.393
-876.952
-826.604
-788.616
-763.608
-747.567
-730.836
-709.111
-684.281
-660.161
-642.875
-634.682
-633.593
-636.986
-641.86
-646.23
-649.453
-650.964
-650.152
-646.866
-641.369
-634.109
-625.626
-616.556
-607.428
-598.804
-591.365
-585.379
-580.754
-577.304
-574.659
-572.44
-570.396
-568.23
-565.614
-562.396
-558.522
-553.982
-548.868
-543.252
-537.157
-530.641
-523.755
-516.529
-509.011
-501.242
-493.259
-485.122
-476.872
-468.531
-460.12
-451.643
-443.093
-434.46
-425.719
-416.839
-407.796
-398.571
-389.147
-379.511
-369.641
-359.513
-349.103
-338.389
-327.35
-315.971
-304.238
-292.137
-279.665
-266.821
-253.608
-240.033
-226.104
-211.826
-197.21
-182.266
-167.008
-151.455
-135.624
-119.537
-103.22
-86.7
-70.011
-53.184
-36.257
-19.266
-2.251
14.749
31.689
48.528
65.221
81.722
97.988
113.972
129.63
144.915
159.785
174.196
188.107
201.478
214.271
226.451
237.984
248.84
258.992
268.415
277.089
284.995
292.12
298.452
303.985
308.716
312.645
315.776
318.118
319.684
320.488
320.551
319.894
318.544
316.53
313.884
310.64
306.835
302.509
297.703
292.459
286.823
280.839
274.554
268.016
261.271
254.368
247.354
240.275
233.178
226.108
219.107
212.22
205.486
198.944
192.632
186.582
180.829
175.4
170.325
165.626
161.327
157.444
153.996
150.993
148.447
146.365
144.75
143.605
142.928
142.716
142.961
143.655
144.786
146.342
148.307
150.662
153.389
156.467
159.873
163.584
167.575
171.821
176.294
180.969
185.817
190.812
195.926
201.132
206.402
211.711
217.032
222.34
227.61
232.82
237.946
242.967
247.864
252.617
257.211
261.629
265.857
269.881
273.692
277.28
280.635
283.753
286.627
289.254
291.634
293.764
295.647
297.285
298.682
299.842
300.773
301.48
301.973
302.261
302.353
302.261
301.995
301.568
300.992
300.28
299.445
298.499
297.456
296.33
295.132
293.876
292.574
291.239
289.881
288.513
287.145
285.787
284.45
283.142
281.871
280.645
279.471
278.355
277.301
276.314
275.396
274.552
273.781
273.086
272.465
271.918
271.444
271.04
270.703
270.428
270.212
270.05
269.936
269.863
269.826
269.818
269.831
269.859
269.895
269.93
269.957
269.968
269.956
269.913
269.833
269.707
269.529
269.293
268.993
268.623
268.178
267.654
267.046
266.352
265.568
264.693
263.725
262.665
261.511
260.266
258.931
257.509
256.003
254.417
252.755
251.023
249.227
247.372
245.467
243.518
241.532
239.518
237.483
235.436
233.385
231.339
229.304
227.29
225.303
223.351
221.441
219.578
217.77
216.02
214.334
212.715
211.167
209.69
208.287
206.957
205.698
204.509
203.386
202.324
201.319
200.362
199.447
198.564
197.704
196.856
196.008
195.147
194.26
193.334
192.354
191.307
190.178
188.954
187.62
186.164
184.571
182.831
180.929
178.855
176.597
174.147
171.495
168.633
165.557
162.26
158.739
154.994
151.025
146.834
142.424
137.8
132.97
127.943
122.729
117.342
111.795
106.106
100.292
94.373
88.37
82.303
76.197
70.072
63.952
57.861
51.822
45.858
39.992
34.246
28.643
23.205
17.953
12.905
8.081
3.495
-0.835
-4.897
-8.681
-12.18
-15.393
-18.317
-20.954
-23.306
-25.382
-27.189
-28.738
-30.038
-31.097
-31.925
-32.537
-32.948
-33.177
-33.24
-33.153
-32.93
-32.582
-32.125
-31.565
-30.904
-30.146
-29.291
-28.354
-27.358
-26.33
-25.296
-24.275
-23.288
-22.347
-21.457
-20.614
-19.8
-19.002
-18.215
-17.432
-16.647
-15.852
-15.02
-14.123
-13.127
-11.954
-10.516
-8.788
-6.769
-4.557
-2.345
-0.26
1.575
2.967
3.75
3.851
3.279
2.335
1.524
1.154
1.474
2.768
5.204
8.913
14.118
20.64
27.826
35.322
42.069
46.274
47.664
46.229
42.562
39.524
36.348
29.771
17.932
-2.789
-30.481
-58.401
-83.115
-99.647
-105.312
-99.124
-73.176
-20.261
63.866
180.429
320.14
471.879
628.698
784.318
936.706
1079.474
1194.477
1259.221
1251.188
1159.015
992.608
777.611
548.109
335.902
159.253
25.181
-67.153
-123.419
-146.198
-139.53
-111.911
-72.263
-34.204
-8.736
3.028
4.263
3.988
11.519
27.764
49.383
70.237
83.815
88.743
86.888
80.817
73.128
65.197
57.491
50.685
45.67
42.907
42.391
43.883
46.948
51.005
55.507
59.754
62.903
64.551
64.641
63.269
60.736
57.374
53.469
49.383
45.501
42.018
39.003
36.459
34.295
32.439
30.848
29.444
28.153
26.924
25.717
24.493
23.22
21.844
20.299
18.542
16.546
14.304
11.822
9.116
6.207
3.131
-0.071
-3.359
-6.699
-10.056
-13.398
-16.685
-19.872
-22.911
-25.757
-28.362
-30.687
-32.694
-34.346
-35.613
-36.469
-36.889
-36.856
-36.354
-35.359
-33.853
-31.816
-29.23
-26.097
-22.422
-18.205
-13.453
-8.18
-2.4
3.86
10.566
17.708
25.267
33.221
41.554
50.219
59.171
68.365
77.749
87.294
96.972
106.733
116.53
126.331
136.096
145.803
155.438
164.924
174.187
183.167
191.791
200.027
207.848
215.21
222.079
228.414
234.165
239.318
243.861
247.749
250.956
253.438
255.149
256.132
256.432
256.077
255.113
253.558
251.424
248.759
245.604
241.995
237.975
233.572
228.813
223.764
218.484
213.042
207.515
201.914
196.247
190.547
184.832
179.136
173.502
167.943
162.476
157.137
151.959
146.975
142.222
137.706
133.436
129.419
125.656
122.17
118.987
116.114
113.562
111.336
109.438
107.872
106.647
105.747
105.16
104.869
104.858
105.114
105.628
106.381
107.357
108.537
109.898
111.423
113.091
114.882
116.775
118.748
120.78
122.855
124.958
127.071
129.181
131.272
133.331
135.346
137.307
139.202
141.022
142.759
144.406
145.957
147.409
148.758
150.002
151.141
152.174
153.102
153.928
154.653
155.282
155.817
156.262
156.622
156.901
157.104
157.235
157.299
157.299
157.241
157.128
156.963
156.749
156.489
156.184
155.837
155.448
155.018
154.546
154.031
153.473
152.871
152.222
151.523
150.773
149.967
149.102
148.174
147.179
146.111
144.965
143.738
142.423
141.014
139.508
137.898
136.179
134.347
132.396
130.323
128.122
125.791
123.324
120.72
117.976
115.089
112.058
108.882
105.559
102.091
98.477
94.718
90.816
86.772
82.589
78.27
73.817
69.234
64.524
59.693
54.745
49.685
44.518
39.25
33.886
28.434
22.9
17.29
11.611
5.87
0.075
-5.768
-11.649
-17.563
-23.501
-29.456
-35.419
-41.383
-47.342
-53.287
-59.211
-65.107
-70.968
-76.788
-82.56
-88.278
-93.935
-99.526
-105.044
-110.484
-115.84
-121.108
-126.282
-131.358
-136.33
-141.196
-145.95
-150.589
-155.11
-159.509
-163.783
-167.931
-171.949
-175.837
-179.594
-183.218
-186.708
-190.066
-193.292
-196.385
-199.347
-202.18
-204.883
-207.46
-209.912
-212.24
-214.448
-216.537
-218.51
-220.37
-222.119
-223.761
-225.3
-226.738
-228.08
-229.329
-230.489
-231.564
-232.56
-233.48
-234.328
-235.11
-235.83
-236.492
-237.1
-237.659
-238.171
-238.64
-239.069
-239.461
-239.816
-240.138
-240.428
-240.687
-240.917
-241.119
-241.293
-241.441
-241.562
-241.658
-241.727
-241.77
-241.784
-241.77
-241.725
-241.648
-241.536
-241.388
-241.201
-240.972
-240.697
-240.372
-239.994
-239.558
-239.059
-238.494
-237.858
-237.147
-236.358
-235.489
-234.537
-233.5
-232.377
-231.168
-229.872
-228.49
-227.022
-225.468
-223.83
-222.113
-220.319
-218.452
-216.518
-214.524
-212.48
-210.399
-208.293
-206.176
-204.063
-201.969
-199.912
-197.908
-195.971
-194.114
-192.348
-190.688
-189.147
-187.738
-186.474
-185.363
-184.411
-183.621
-182.996
-182.533
-182.219
-182.044
-181.999
-182.079
-182.296
-182.661
-183.179
-183.86
-184.71
-185.726
-186.9
-188.213
-189.63
-191.121
-192.665
-194.237
-195.823
-197.401
-198.932
-200.374
-201.673
-202.748
-203.516
-203.934
-203.988
-203.753
-203.387
-203.047
-202.909
-203.169
-204.003
-205.492
-207.596
-210.055
-212.423
-214.264
-215.149
-214.73
-212.773
-209.071
-203.476
-196.172
-187.616
-179.069
-172.597
-169.625
-170.568
-173.808
-176.474
-177.563
-179.36
-187.155
-205.671
-235.843
-272.58
-306.877
-332.312
-344.623
-342.611
-326.163
-288.968
-224.792
-130.461
-5.515
140.754
298.011
460.632
622.09
778.487
920.698
1027.869
1078.429
1054.246
949.25
777.985
565.775
341.993
133.393
-45.352
-185.907
-284.168
-341.905
-360.273
-346.181
-313.119
-272.993
-239.724
-221.536
-217.027
-223.159
-232.765
-239.829
-243.011
-240.615
-233.124
-221.016
-204.956
-188.634
-174.751
-165.798
-162.463
-161.985
-162.646
-163.297
-163.438
-164.11
-165.386
-166.722
-167.892
-168.508
-168.43
-167.899
-167.051
-166.073
-165.374
-165.151
-165.374
-165.938
-166.648
-167.322
-167.855
-168.105
-167.841
-166.943
-165.396
-163.24
-160.586
-157.518
-154.078
-150.332
-146.371
-142.281
-138.144
-134.028
-129.955
-125.941
-121.998
-118.125
-114.322
-110.57
-106.835
-103.078
-99.264
-95.366
-91.361
-87.226
-82.935
-78.458
-73.767
-68.834
-63.638
-58.157
-52.375
-46.273
-39.838
-33.062
-25.941
-18.477
-10.67
-2.521
5.968
14.791
23.941
33.406
43.172
53.222
63.536
74.089
84.852
95.794
106.88
118.074
129.336
140.626
151.9
163.116
174.227
185.188
195.951
206.47
216.697
226.586
236.09
245.164
253.766
261.852
269.385
276.325
282.64
288.297
293.268
297.528
301.054
303.828
305.836
307.068
307.518
307.182
306.064
304.171
301.512
298.104
293.966
289.12
283.593
277.416
270.622
263.247
255.332
246.917
238.045
228.764
219.12
209.162
198.938
188.499
177.895
167.175
156.388
145.583
134.807
124.106
113.524
103.104
92.886
82.908
73.206
63.813
54.76
46.074
37.778
29.894
22.441
15.431
8.878
2.789
-2.831
-7.98
-12.658
-16.87
-20.622
-23.925
-26.788
-29.227
-31.258
-32.898
-34.167
-35.086
-35.678
-35.964
-35.969
-35.716
-35.23
-34.535
-33.656
-32.616
-31.439
-30.148
-28.765
-27.311
-25.806
-24.269
-22.718
-21.169
-19.638
-18.137
-16.679
-15.275
-13.932
-12.66
-11.464
-10.348
-9.315
-8.367
-7.504
-6.725
-6.029
-5.411
-4.868
-4.395
-3.986
-3.635
-3.335
-3.081
-2.864
-2.678
-2.516
-2.371
-2.235
-2.103
-1.967
-1.823
-1.665
-1.488
-1.288
-1.06
-0.802
-0.512
-0.187
0.175
0.573
1.007
1.478
1.984
2.522
3.092
3.689
4.31
4.951
5.608
6.277
6.951
7.627
8.299
8.962
9.61
10.239
10.844
11.42
11.963
12.469
12.934
13.354
13.728
14.052
14.324
14.542
14.706
14.815
14.868
14.866
14.809
14.698
14.535
14.321
14.058
13.75
13.399
13.008
12.581
12.121
11.633
11.12
10.588
10.041
9.483
8.918
8.352
7.788
7.23
6.683
6.149
5.633
5.137
4.665
4.219
3.801
3.413
3.057
2.733
2.443
2.187
1.966
1.779
1.626
1.506
1.418
1.362
1.336
1.338
1.367
1.421
1.497
1.594
1.709
1.839
1.983
2.136
2.297
2.463
2.631
2.799
2.965
3.127
3.281
3.427
3.562
3.684
3.792
3.884
3.959
4.016
4.053
4.071
4.068
4.045
4
3.933
3.845
3.734
3.601
3.445
3.266
3.063
2.838
2.589
2.316
2.02
1.7
1.355
0.986
0.591
0.171
-0.275
-0.748
-1.248
-1.776
-2.33
-2.912
-3.522
-4.159
-4.823
-5.514
-6.232
-6.975
-7.744
-8.538
-9.356
-10.198
-11.06
-11.943
-12.843
-13.758
-14.685
-15.621
-16.562
-17.504
-18.444
-19.376
-20.297
-21.2
-22.08
-22.932
-23.748
-24.524
-25.251
-25.924
-26.535
-27.08
-27.554
-27.952
-28.267
-28.495
-28.634
-28.678
-28.626
-28.473
-28.217
-27.857
-27.393
-26.826
-26.159
-25.396
-24.543
-23.606
-22.596
-21.524
-20.403
-19.248
-18.073
-16.896
-15.735
-14.607
-13.527
-12.515
-11.585
-10.754
-10.038
-9.451
-9.005
-8.716
-8.593
-8.646
-8.881
-9.291
-9.874
-10.627
-11.551
-12.657
-13.955
-15.444
-17.131
-19.023
-21.121
-23.43
-25.931
-28.578
-31.33
-34.152
-37.024
-39.956
-42.944
-45.957
-48.951
-51.866
-54.638
-57.248
-59.646
-61.718
-63.432
-64.837
-66.09
-67.543
-69.516
-72.184
-75.751
-80.432
-86.239
-93.031
-100.422
-107.594
-113.762
-118.367
-120.793
-120.497
-117.3
-111.3
-103.025
-93.755
-84.894
-77.661
-73.503
-73.912
-80.04
-92.703
-112.226
-137.152
-164.642
-191.911
-215.238
-232.371
-244.016
-249.481
-247.083
-232.479
-195.238
-127.186
-25.611
107.392
260.088
420.708
583.728
743.657
897.432
1036.406
1138.583
1181.015
1145.122
1024.493
835.83
608.1
373.747
162.819
-9.705
-139.35
-227.376
-281.143
-304.697
-302.186
-281.261
-248.193
-213.447
-186.825
-170.435
-163.818
-161.218
-154.659
-142.503
-126.09
-109.124
-97.016
-91.314
-90.844
-93.803
-97.911
-102.074
-106.141
-109.896
-112.992
-114.917
-115.475
-114.827
-113.163
-110.817
-108.113
-105.304
-102.862
-101.306
-100.791
-101.25
-102.473
-104.1
-105.872
-107.619
-109.085
-110.007
-110.244
-109.736
-108.527
-106.741
-104.456
-101.725
-98.612
-95.184
-91.518
-87.694
-83.787
-79.86
-75.959
-72.115
-68.351
-64.68
-61.103
-57.611
-54.18
-50.772
-47.362
-43.929
-40.458
-36.932
-33.327
-29.609
-25.746
-21.702
-17.45
-12.964
-8.219
-3.193
2.131
7.765
13.711
19.971
26.551
33.465
40.73
48.361
56.353
64.694
73.364
82.327
91.55
100.997
110.612
120.353
130.187
140.095
150.08
160.145
170.276
180.441
190.59
200.671
210.66
220.538
230.289
239.922
249.44
258.854
268.21
277.525
286.77
295.889
304.766
313.265
321.291
328.769
335.646
341.885
347.422
352.192
356.149
359.222
361.341
362.427
362.349
361.018
358.419
354.581
349.607
343.649
336.814
329.193
320.88
311.944
302.47
292.545
282.227
271.587
260.716
249.722
238.76
227.965
217.411
207.137
197.135
187.354
177.776
168.394
159.187
150.158
141.311
132.653
124.217
116.039
108.13
100.487
93.082
85.884
78.891
72.113
65.575
59.316
53.363
47.735
42.458
37.545
32.998
28.814
24.971
21.438
18.196
15.229
12.524
10.071
7.855
5.855
4.052
2.42
0.938
-0.418
-1.674
-2.853
-3.975
-5.058
-6.112
-7.147
-8.172
-9.198
-10.23
-11.279
-12.352
-13.453
-14.59
-15.769
-16.994
-18.265
-19.585
-20.951
-22.363
-23.818
-25.312
-26.842
-28.402
-29.989
-31.597
-33.221
-34.856
-36.495
-38.135
-39.769
-41.392
-42.998
-44.583
-46.142
-47.67
-49.165
-50.622
-52.04
-53.416
-54.748
-56.037
-57.28
-58.48
-59.634
-60.745
-61.813
-62.84
-63.827
-64.777
-65.693
-66.577
-67.433
-68.264
-69.073
-69.865
-70.641
-71.406
-72.163
-72.914
-73.662
-74.411
-75.163
-75.92
-76.685
-77.459
-78.245
-79.044
-79.857
-80.686
-81.532
-82.394
-83.274
-84.172
-85.088
-86.022
-86.972
-87.938
-88.92
-89.916
-90.924
-91.943
-92.972
-94.01
-95.054
-96.103
-97.155
-98.21
-99.266
-100.321
-101.375
-102.426
-103.473
-104.516
-105.553
-106.585
-107.609
-108.625
-109.633
-110.631
-111.619
-112.596
-113.561
-114.514
-115.452
-116.376
-117.284
-118.176
-119.05
-119.905
-120.742
-121.559
-122.355
-123.129
-123.881
-124.609
-125.312
-125.99
-126.641
-127.263
-127.855
-128.416
-128.943
-129.435
-129.891
-130.309
-130.686
-131.022
-131.315
-131.564
-131.766
-131.922
-132.031
-132.091
-132.103
-132.067
-131.983
-131.851
-131.672
-131.447
-131.177
-130.863
-130.507
-130.11
-129.674
-129.202
-128.695
-128.156
-127.589
-126.996
-126.38
-125.747
-125.1
-124.443
-123.78
-123.117
-122.458
-121.808
-121.173
-120.557
-119.965
-119.402
-118.873
-118.382
-117.933
-117.529
-117.174
-116.869
-116.618
-116.422
-116.282
-116.198
-116.171
-116.201
-116.288
-116.43
-116.625
-116.872
-117.166
-117.506
-117.886
-118.301
-118.745
-119.211
-119.692
-120.181
-120.67
-121.148
-121.607
-122.036
-122.426
-122.765
-123.043
-123.248
-123.37
-123.398
-123.322
-123.133
-122.822
-122.381
-121.802
-121.08
-120.207
-119.18
-117.995
-116.647
-115.134
-113.456
-111.612
-109.606
-107.441
-105.122
-102.656
-100.056
-97.332
-94.5
-91.578
-88.582
-85.533
-82.453
-79.365
-76.288
-73.247
-70.262
-67.354
-64.547
-61.86
-59.313
-56.925
-54.714
-52.695
-50.883
-49.283
-47.896
-46.72
-45.758
-45.012
-44.499
-44.229
-44.207
-44.439
-44.935
-45.695
-46.722
-47.997
-49.471
-51.103
-52.858
-54.711
-56.664
-58.703
-60.785
-62.86
-64.861
-66.725
-68.419
-69.886
-71.028
-71.82
-72.313
-72.654
-73.135
-74.021
-75.472
-77.655
-80.733
-84.721
-89.503
-94.776
-99.922
-104.343
-107.566
-109.124
-108.703
-106.069
-101.071
-94.046
-85.79
-77.727
-72.022
-69.814
-71.436
-76.358
-82.272
-89.29
-99.29
-113.959
-136.021
-164.123
-193.665
-219.923
-236.866
-239.378
-221.257
-175.344
-96.47
16.893
157.945
315.776
480.449
643.691
802.359
951.701
1078.827
1164.606
1187.108
1131.29
997.44
803.574
578.311
351.405
147.652
-21.443
-151.815
-242.123
-294.906
-309.754
-291.344
-251.333
-202.861
-163.429
-142.042
-136.822
-141.163
-142.231
-133.392
-116.801
-97.319
-82.591
-76.277
-76.778
-81.23
-86.553
-91.293
-95.184
-98.098
-99.823
-99.834
-98.082
-95.048
-91.042
-86.4
-81.586
-76.882
-72.736
-69.719
-67.94
-67.259
-67.496
-68.294
-69.313
-70.347
-71.118
-71.33
-70.863
-69.658
-67.715
-65.142
-62.021
-58.403
-54.371
-49.995
-45.334
-40.465
-35.46
-30.39
-25.337
-20.364
-15.508
-10.799
-6.248
-1.857
2.378
6.484
10.493
14.429
18.312
22.156
25.973
29.79
33.637
37.544
41.546
45.674
49.956
54.421
59.093
63.992
69.131
74.518
80.153
86.046
92.205
98.646
105.386
112.436
119.797
127.463
135.418
143.634
152.07
160.677
169.403
178.204
187.044
195.903
204.775
213.656
222.542
231.416
240.237
248.973
257.59
266.066
274.384
282.548
290.579
298.509
306.386
314.229
322.031
329.744
337.284
344.543
351.396
357.742
363.508
368.627
373.042
376.698
379.536
381.485
382.457
382.35
381.039
378.436
374.494
369.223
362.69
355.003
346.312
336.746
326.42
315.436
303.877
291.828
279.369
266.589
253.586
240.483
227.432
214.562
201.98
189.752
177.9
166.412
155.244
144.36
133.735
123.356
113.228
103.364
93.783
84.504
75.552
66.926
58.608
50.583
42.833
35.36
28.181
21.324
14.831
8.739
3.077
-2.133
-6.882
-11.174
-15.017
-18.431
-21.443
-24.072
-26.336
-28.249
-29.825
-31.081
-32.039
-32.724
-33.163
-33.385
-33.419
-33.292
-33.029
-32.654
-32.186
-31.64
-31.03
-30.369
-29.669
-28.943
-28.204
-27.465
-26.736
-26.03
-25.355
-24.721
-24.135
-23.602
-23.126
-22.709
-22.353
-22.059
-21.827
-21.657
-21.549
-21.499
-21.508
-21.573
-21.691
-21.861
-22.079
-22.341
-22.646
-22.988
-23.366
-23.775
-24.214
-24.679
-25.168
-25.679
-26.212
-26.764
-27.334
-27.92
-28.523
-29.139
-29.769
-30.411
-31.065
-31.731
-32.408
-33.097
-33.797
-34.51
-35.235
-35.973
-36.724
-37.486
-38.261
-39.046
-39.843
-40.65
-41.466
-42.291
-43.123
-43.962
-44.807
-45.657
-46.509
-47.364
-48.218
-49.071
-49.921
-50.765
-51.602
-52.431
-53.249
-54.054
-54.844
-55.618
-56.374
-57.109
-57.822
-58.511
-59.174
-59.81
-60.417
-60.995
-61.543
-62.06
-62.545
-62.998
-63.42
-63.81
-64.169
-64.496
-64.793
-65.059
-65.295
-65.503
-65.681
-65.832
-65.957
-66.055
-66.129
-66.178
-66.205
-66.209
-66.193
-66.157
-66.103
-66.031
-65.944
-65.842
-65.727
-65.601
-65.464
-65.319
-65.166
-65.008
-64.844
-64.676
-64.506
-64.334
-64.163
-63.992
-63.825
-63.661
-63.503
-63.353
-63.21
-63.078
-62.957
-62.85
-62.757
-62.681
-62.622
-62.584
-62.567
-62.575
-62.607
-62.667
-62.756
-62.875
-63.026
-63.211
-63.431
-63.688
-63.983
-64.317
-64.693
-65.11
-65.571
-66.076
-66.625
-67.219
-67.858
-68.54
-69.266
-70.034
-70.843
-71.691
-72.577
-73.498
-74.453
-75.438
-76.45
-77.487
-78.544
-79.618
-80.704
-81.797
-82.892
-83.985
-85.07
-86.141
-87.194
-88.222
-89.218
-90.177
-91.091
-91.955
-92.761
-93.502
-94.171
-94.762
-95.27
-95.69
-96.016
-96.245
-96.373
-96.396
-96.312
-96.121
-95.818
-95.404
-94.879
-94.243
-93.499
-92.65
-91.702
-90.659
-89.532
-88.329
-87.062
-85.743
-84.385
-83.001
-81.61
-80.225
-78.862
-77.537
-76.265
-75.061
-73.942
-72.921
-72.011
-71.222
-70.564
-70.048
-69.684
-69.474
-69.415
-69.504
-69.737
-70.115
-70.65
-71.347
-72.205
-73.225
-74.408
-75.755
-77.265
-78.924
-80.692
-82.524
-84.381
-86.23
-88.061
-89.866
-91.618
-93.273
-94.776
-96.07
-97.114
-97.897
-98.363
-98.437
-98.133
-97.533
-96.838
-96.386
-96.452
-97.176
-98.752
-101.388
-105.091
-109.792
-115.15
-120.374
-124.771
-127.912
-129.271
-128.251
-124.637
-118.38
-109.766
-100.687
-92.931
-86.846
-83.763
-83.601
-85.667
-93.13
-106.896
-126.578
-152.426
-178.606
-200.645
-217.431
-225.932
-226.307
-215.967
-185.618
-128.023
-37.126
88.508
240.496
410.121
589.024
767.301
936.641
1082.297
1182.241
1215.934
1168.405
1038.626
844.973
615.96
382.508
171.494
-4.116
-139.545
-234.171
-291.821
-313.16
-303.196
-272.575
-232.409
-197.88
-176.677
-167.043
-163.76
-156.396
-139.894
-116.507
-90.75
-69.762
-57.023
-51.736
-51.878
-54.358
-57.677
-61.618
-65.757
-69.82
-73.207
-75.122
-75.472
-74.497
-72.371
-69.47
-66.178
-62.818
-59.914
-57.99
-57.199
-57.46
-58.557
-60.132
-61.908
-63.685
-65.2
-66.194
-66.525
-66.141
-65.088
-63.487
-61.423
-58.956
-56.153
-53.079
-49.811
-46.425
-42.991
-39.572
-36.209
-32.932
-29.761
-26.705
-23.763
-20.928
-18.168
-15.446
-12.731
-10
-7.232
-4.409
-1.503
1.519
4.688
8.035
11.586
15.365
19.396
23.702
28.3
33.2
38.411
43.935
49.778
55.946
62.443
69.269
76.425
83.906
91.705
99.814
108.219
116.901
125.841
135.012
144.388
153.939
163.632
173.432
183.303
193.204
203.095
212.933
222.674
232.273
241.684
250.859
259.753
268.32
276.514
284.29
291.607
298.422
304.696
310.394
315.479
319.921
323.691
326.762
329.112
330.723
331.58
331.67
330.988
329.529
327.296
324.293
320.531
316.023
310.786
304.841
298.213
290.929
283.022
274.523
265.47
255.903
245.862
235.39
224.532
213.333
201.841
190.102
178.163
166.073
153.876
141.62
129.35
117.109
104.941
92.886
80.984
69.272
57.785
46.556
35.614
24.987
14.699
4.772
-4.775
-13.925
-22.667
-30.988
-38.882
-46.343
-53.368
-59.958
-66.114
-71.842
-77.148
-82.04
-86.528
-90.625
-94.343
-97.697
-100.701
-103.373
-105.728
-107.783
-109.558
-111.068
-112.333
-113.37
-114.197
-114.831
-115.288
-115.586
-115.739
-115.762
-115.67
-115.475
-115.19
-114.827
-114.395
-113.906
-113.367
-112.788
-112.175
-111.536
-110.877
-110.203
-109.518
-108.827
-108.134
-107.442
-106.753
-106.072
-105.398
-104.736
-104.086
-103.45
-102.829
-102.225
-101.638
-101.069
-100.52
-99.99
-99.481
-98.994
-98.53
-98.088
-97.671
-97.279
-96.913
-96.573
-96.261
-95.977
-95.721
-95.493
-95.295
-95.125
-94.983
-94.869
-94.781
-94.72
-94.682
-94.667
-94.673
-94.697
-94.736
-94.787
-94.849
-94.917
-94.988
-95.059
-95.125
-95.185
-95.233
-95.266
-95.28
-95.272
-95.237
-95.172
-95.072
-94.935
-94.755
-94.531
-94.257
-93.93
-93.549
-93.109
-92.608
-92.044
-91.414
-90.717
-89.951
-89.115
-88.209
-87.231
-86.182
-85.062
-83.872
-82.613
-81.286
-79.892
-78.434
-76.913
-75.332
-73.693
-72
-70.255
-68.462
-66.623
-64.743
-62.826
-60.876
-58.898
-56.896
-54.875
-52.841
-50.799
-48.755
-46.715
-44.685
-42.671
-40.679
-38.718
-36.792
-34.91
-33.077
-31.302
-29.592
-27.953
-26.392
-24.916
-23.532
-22.247
-21.066
-19.996
-19.043
-18.213
-17.51
-16.941
-16.509
-16.221
-16.08
-16.088
-16.25
-16.568
-17.043
-17.677
-18.471
-19.423
-20.535
-21.803
-23.227
-24.802
-26.526
-28.393
-30.398
-32.534
-34.794
-37.17
-39.652
-42.232
-44.9
-47.644
-50.454
-53.319
-56.227
-59.166
-62.123
-65.085
-68.04
-70.974
-73.872
-76.722
-79.51
-82.222
-84.846
-87.369
-89.778
-92.062
-94.207
-96.203
-98.039
-99.705
-101.191
-102.488
-103.588
-104.485
-105.175
-105.654
-105.918
-105.967
-105.8
-105.42
-104.828
-104.028
-103.023
-101.82
-100.426
-98.849
-97.101
-95.193
-93.139
-90.956
-88.662
-86.276
-83.818
-81.312
-78.777
-76.24
-73.723
-71.247
-68.838
-66.516
-64.305
-62.229
-60.31
-58.564
-57.011
-55.665
-54.54
-53.65
-53.003
-52.595
-52.425
-52.488
-52.787
-53.332
-54.127
-55.167
-56.446
-57.959
-59.7
-61.66
-63.818
-66.128
-68.536
-71.001
-73.482
-75.969
-78.45
-80.891
-83.24
-85.439
-87.428
-89.177
-90.67
-91.85
-92.643
-93.049
-93.15
-93.135
-93.294
-93.874
-95.039
-96.984
-99.936
-103.979
-109.038
-114.848
-120.777
-126.124
-130.318
-132.688
-132.55
-129.537
-123.533
-114.714
-103.987
-92.625
-81.887
-73.356
-68.78
-69.525
-76.593
-90.714
-110.807
-133.855
-156.493
-174.538
-185.701
-191.291
-192.086
-186.764
-169.074
-127.485
-51.435
64.187
215.001
389.795
575.664
760.374
935.099
1088.417
1203.043
1259.016
1237.663
1132.685
955.712
732.824
497.442
278.381
92.637
-53.686
-161.606
-233.844
-271.152
-275.133
-251.968
-212.099
-170.139
-139.756
-125.705
-125.092
-129.287
-127.655
-116.372
-97.653
-76.757
-60.147
-50.229
-46.073
-45.684
-46.774
-48.57
-51.063
-54.087
-57.486
-60.712
-63.112
-64.531
-64.918
-64.267
-62.84
-60.906
-58.761
-56.875
-55.702
-55.386
-55.877
-57.011
-58.487
-60.07
-61.586
-62.789
-63.433
-63.386
-62.62
-61.181
-59.189
-56.729
-53.849
-50.62
-47.116
-43.416
-39.598
-35.729
-31.859
-28.023
-24.25
-20.555
-16.948
-13.425
-9.965
-6.54
-3.113
0.345
3.857
7.443
11.125
14.929
18.885
23.021
27.364
31.938
36.765
41.867
47.263
52.965
58.982
65.318
71.974
78.953
86.256
93.881
101.826
110.084
118.646
127.5
136.631
146.02
155.643
165.474
175.483
185.636
195.899
206.234
216.602
226.96
237.264
247.47
257.531
267.4
277.028
286.367
295.369
303.986
312.172
319.879
327.063
333.683
339.698
345.071
349.766
353.752
357
359.485
361.186
362.085
362.17
361.429
359.86
357.46
354.234
350.191
345.344
339.709
333.309
326.168
318.316
309.786
300.614
290.84
280.505
269.654
258.335
246.596
234.488
222.064
209.376
196.478
183.423
170.266
157.06
143.857
130.708
117.664
104.773
92.082
79.635
67.473
55.637
44.162
33.083
22.43
12.23
2.506
-6.721
-15.434
-23.62
-31.269
-38.374
-44.932
-50.943
-56.41
-61.34
-65.741
-69.624
-73.005
-75.9
-78.327
-80.308
-81.864
-83.019
-83.8
-84.231
-84.341
-84.156
-83.706
-83.018
-82.121
-81.044
-79.812
-78.455
-76.998
-75.466
-73.884
-72.275
-70.66
-69.06
-67.493
-65.977
-64.526
-63.155
-61.876
-60.699
-59.634
-58.688
-57.866
-57.173
-56.612
-56.184
-55.889
-55.726
-55.692
-55.783
-55.995
-56.322
-56.757
-57.293
-57.921
-58.632
-59.417
-60.265
-61.168
-62.114
-63.093
-64.096
-65.11
-66.128
-67.139
-68.134
-69.105
-70.043
-70.941
-71.791
-72.588
-73.325
-73.998
-74.6
-75.129
-75.58
-75.951
-76.239
-76.443
-76.561
-76.593
-76.54
-76.402
-76.18
-75.876
-75.494
-75.036
-74.506
-73.909
-73.249
-72.532
-71.763
-70.948
-70.093
-69.205
-68.288
-67.35
-66.397
-65.434
-64.467
-63.502
-62.544
-61.599
-60.672
-59.768
-58.892
-58.048
-57.241
-56.475
-55.755
-55.085
-54.467
-53.906
-53.406
-52.968
-52.596
-52.293
-52.059
-51.898
-51.809
-51.793
-51.851
-51.983
-52.188
-52.465
-52.813
-53.231
-53.718
-54.273
-54.893
-55.579
-56.327
-57.138
-58.008
-58.937
-59.923
-60.963
-62.057
-63.202
-64.396
-65.636
-66.92
-68.245
-69.606
-70.999
-72.422
-73.868
-75.333
-76.812
-78.299
-79.788
-81.276
-82.755
-84.22
-85.665
-87.085
-88.474
-89.824
-91.13
-92.384
-93.579
-94.708
-95.763
-96.737
-97.622
-98.41
-99.092
-99.662
-100.111
-100.43
-100.613
-100.652
-100.539
-100.269
-99.836
-99.238
-98.47
-97.529
-96.416
-95.129
-93.671
-92.042
-90.246
-88.284
-86.164
-83.89
-81.471
-78.915
-76.233
-73.436
-70.541
-67.563
-64.521
-61.434
-58.322
-55.21
-52.119
-49.074
-46.096
-43.21
-40.435
-37.795
-35.311
-33.003
-30.888
-28.986
-27.311
-25.876
-24.694
-23.77
-23.101
-22.683
-22.515
-22.597
-22.939
-23.548
-24.425
-25.572
-26.994
-28.69
-30.657
-32.874
-35.294
-37.875
-40.577
-43.371
-46.249
-49.192
-52.157
-55.094
-57.938
-60.619
-63.101
-65.325
-67.199
-68.696
-69.856
-70.8
-71.789
-73.084
-74.862
-77.303
-80.581
-84.728
-89.648
-95.101
-100.546
-105.399
-109.154
-111.318
-111.544
-109.574
-105.246
-98.817
-90.942
-83.108
-77.586
-75.401
-76.9
-81.512
-86.722
-93.48
-104.355
-120.375
-144.221
-172.744
-199.148
-220.486
-231.344
-228.718
-210.984
-169.758
-99.585
1.878
134.223
288.115
455.02
628.374
799.732
961.076
1097.454
1186.947
1209.724
1152.625
1016.415
820.1
592.006
361.464
153.717
-18.326
-149.421
-236.413
-280.163
-282.411
-250.649
-200.673
-150.157
-114.743
-99.936
-99.657
-102.487
-96.807
-78.733
-52.499
-25.549
-5.248
5.745
9.035
7.623
4.426
0.665
-3.246
-6.916
-9.92
-11.521
-11.415
-9.85
-7.096
-3.499
0.448
4.35
7.707
9.92
10.804
10.462
9.08
6.998
4.55
1.963
-0.48
-2.464
-3.847
-4.575
-4.651
-4.177
-3.225
-1.835
-0.077
1.979
4.279
6.756
9.35
12.013
14.685
17.323
19.905
22.414
24.852
27.23
29.565
31.888
34.232
36.62
39.074
41.613
44.256
47.034
49.979
53.122
56.495
60.13
64.053
68.296
72.878
77.807
83.093
88.738
94.75
101.144
107.924
115.082
122.612
130.496
138.712
147.24
156.038
165.046
174.209
183.468
192.781
202.13
211.487
220.816
230.085
239.252
248.294
257.224
266.038
274.73
283.302
291.751
300.108
308.442
316.792
325.181
333.606
342.006
350.33
358.539
366.572
374.373
381.865
388.898
395.349
401.116
406.071
410.098
413.042
414.687
414.863
413.448
410.351
405.561
399.081
390.89
381.008
369.47
356.314
341.684
325.723
308.547
290.324
271.228
251.474
231.362
211.182
191.154
171.481
152.304
133.726
115.9
98.947
82.975
68.109
54.387
41.822
30.449
20.261
11.219
3.252
-3.792
-10.101
-15.798
-20.982
-25.729
-30.069
-34.081
-37.841
-41.415
-44.888
-48.307
-51.698
-55.105
-58.557
-62.051
-65.566
-69.032
-72.335
-75.412
-78.228
-80.757
-83.009
-84.976
-86.64
-88.004
-89.067
-89.833
-90.317
-90.522
-90.451
-90.128
-89.588
-88.883
-88.093
-87.272
-86.459
-85.686
-84.974
-84.34
-83.806
-83.379
-83.057
-82.843
-82.741
-82.757
-82.901
-83.172
-83.566
-84.074
-84.682
-85.375
-86.147
-86.986
-87.884
-88.835
-89.83
-90.867
-91.946
-93.065
-94.218
-95.399
-96.601
-97.818
-99.042
-100.268
-101.489
-102.699
-103.892
-105.064
-106.213
-107.337
-108.431
-109.496
-110.528
-111.527
-112.493
-113.425
-114.323
-115.188
-116.021
-116.824
-117.599
-118.347
-119.071
-119.773
-120.454
-121.117
-121.764
-122.395
-123.011
-123.614
-124.205
-124.784
-125.353
-125.914
-126.466
-127.011
-127.551
-128.086
-128.617
-129.144
-129.667
-130.186
-130.701
-131.212
-131.717
-132.215
-132.707
-133.191
-133.667
-134.134
-134.592
-135.039
-135.475
-135.901
-136.316
-136.72
-137.114
-137.498
-137.874
-138.243
-138.606
-138.966
-139.324
-139.682
-140.044
-140.411
-140.786
-141.171
-141.568
-141.98
-142.408
-142.854
-143.319
-143.806
-144.315
-144.847
-145.405
-145.988
-146.597
-147.233
-147.896
-148.585
-149.299
-150.037
-150.797
-151.577
-152.373
-153.181
-153.998
-154.82
-155.641
-156.456
-157.259
-158.042
-158.8
-159.524
-160.206
-160.838
-161.412
-161.92
-162.354
-162.707
-162.972
-163.141
-163.209
-163.17
-163.018
-162.747
-162.354
-161.834
-161.181
-160.395
-159.475
-158.418
-157.227
-155.903
-154.449
-152.872
-151.18
-149.384
-147.493
-145.52
-143.479
-141.385
-139.254
-137.098
-134.931
-132.766
-130.616
-128.497
-126.425
-124.412
-122.475
-120.624
-118.87
-117.223
-115.685
-114.255
-112.929
-111.707
-110.592
-109.6
-108.748
-108.047
-107.51
-107.147
-106.962
-106.954
-107.1
-107.362
-107.706
-108.107
-108.555
-109.047
-109.562
-110.066
-110.518
-110.865
-111.066
-111.068
-110.783
-110.173
-109.292
-108.275
-107.354
-106.751
-106.586
-106.992
-108.159
-110.132
-112.771
-115.749
-118.54
-120.759
-122.3
-123.024
-122.681
-121.216
-118.743
-115.577
-112.327
-109.299
-107.042
-107.001
-110.537
-118.661
-129.611
-138.65
-142.267
-138.861
-132.871
-133.596
-146.733
-174.721
-211.855
-245.057
-262.943
-253.269
-208.743
-129.544
-18.002
116.196
262.422
414.451
566.882
718.654
864.567
988.474
1067.976
1077.949
1004.106
852.405
646.937
423.05
213.16
37.458
-98.419
-197.654
-265.173
-303.869
-312.051
-292.411
-253.346
-207.109
-170.992
-153.091
-151.348
-158.519
-161.383
-153.632
-137.327
-117.184
-100.407
-90.259
-85.54
-84.149
-83.789
-83.664
-84.033
-85.024
-86.636
-88.444
-89.883
-90.817
-91.161
-90.845
-90.026
-88.857
-87.551
-86.511
-86.16
-86.651
-87.961
-89.962
-92.4
-95.077
-97.848
-100.486
-102.745
-104.484
-105.654
-106.282
-106.463
-106.265
-105.722
-104.884
-103.814
-102.571
-101.219
-99.811
-98.382
-96.957
-95.547
-94.16
-92.796
-91.444
-90.083
-88.681
-87.196
-85.598
-83.862
-81.966
-79.888
-77.596
-75.054
-72.231
-69.1
-65.635
-61.817
-57.627
-53.045
-48.062
-42.679
-36.895
-30.714
-24.129
-17.126
-9.704
-1.879
6.326
14.875
23.731
32.865
42.232
51.773
61.444
71.207
81.041
90.957
100.937
110.951
120.95
130.863
140.64
150.261
159.703
168.953
178.001
186.824
195.431
203.865
212.12
220.159
227.897
235.188
241.931
248.06
253.523
258.3
262.352
265.611
268.027
269.566
270.178
269.824
268.427
265.863
262.085
257.104
250.994
243.911
235.972
227.253
217.838
207.795
197.202
186.16
174.744
163.003
151.014
138.863
126.673
114.616
102.802
91.292
80.107
69.208
58.584
48.255
38.228
28.51
19.111
10.038
1.32
-6.987
-14.854
-22.267
-29.235
-35.797
-41.965
-47.731
-53.077
-57.964
-62.37
-66.285
-69.698
-72.593
-74.966
-76.822
-78.181
-79.082
-79.557
-79.627
-79.314
-78.634
-77.607
-76.262
-74.627
-72.733
-70.609
-68.283
-65.786
-63.151
-60.404
-57.57
-54.668
-51.709
-48.709
-45.679
-42.631
-39.575
-36.517
-33.462
-30.416
-27.384
-24.365
-21.359
-18.362
-15.368
-12.368
-9.356
-6.319
-3.246
-0.125
3.059
6.318
9.667
13.122
16.695
20.402
24.257
28.273
32.464
36.842
41.417
46.199
51.197
56.417
61.863
67.539
73.445
79.58
85.942
92.527
99.327
106.335
113.542
120.937
128.507
136.236
144.108
152.107
160.212
168.404
176.662
184.962
193.284
201.603
209.896
218.141
226.312
234.388
242.344
250.157
257.807
265.271
272.529
279.563
286.353
292.885
299.143
305.112
310.783
316.143
321.185
325.901
330.286
334.335
338.047
341.421
344.457
347.157
349.527
351.57
353.292
354.702
355.808
356.619
357.146
357.4
357.392
357.135
356.642
355.925
354.998
353.875
352.568
351.091
349.457
347.679
345.768
343.737
341.597
339.358
337.03
334.624
332.147
329.607
327.013
324.372
321.691
318.974
316.23
313.461
310.675
307.875
305.066
302.253
299.439
296.628
293.824
291.032
288.255
285.497
282.762
280.054
277.376
274.734
272.132
269.574
267.065
264.61
262.213
259.88
257.615
255.426
253.316
251.29
249.355
247.516
245.776
244.142
242.614
241.196
239.89
238.697
237.617
236.647
235.786
235.029
234.371
233.806
233.326
232.921
232.579
232.287
232.029
231.789
231.547
231.281
230.969
230.585
230.105
229.501
228.744
227.807
226.662
225.28
223.633
221.695
219.437
216.83
213.853
210.48
206.69
202.464
197.781
192.627
187
180.897
174.316
167.253
159.698
151.645
143.099
134.065
124.547
114.555
104.101
93.211
81.937
70.334
58.451
46.331
33.997
21.472
8.805
-3.943
-16.699
-29.4
-41.997
-54.449
-66.684
-78.619
-90.256
-101.675
-113.035
-124.566
-136.429
-148.699
-161.498
-174.97
-189.08
-203.709
-218.586
-233.165
-247.04
-259.92
-271.397
-281.17
-289.056
-294.807
-298.617
-301.114
-303.281
-306.832
-312.622
-320.764
-330.419
-339.292
-347.665
-357.352
-370.586
-390.801
-417.019
-445.419
-471.932
-489.797
-493.393
-477.312
-434.938
-364.021
-265.871
-145.073
-9.643
135.305
286.829
439.522
583.763
702.269
770.999
770.049
691.813
541.559
340.967
119.001
-100.298
-295.454
-454.057
-571.831
-644.747
-674.424
-666.527
-630.323
-580.615
-532.752
-498.644
-481.699
-477.775
-478.203
-473.503
-461.078
-443.598
-425.996
-414.11
-409.591
-410.664
-414.892
-419.693
-423.864
-427.354
-430.177
-432.218
-433.161
-432.965
-431.894
-430.185
-428.168
-426.117
-424.184
-422.734
-422.207
-422.713
-424.174
-426.398
-429.065
-431.965
-434.98
-437.91
-440.525
-442.7
-444.383
-445.612
-446.505
-447.137
-447.554
-447.815
-447.982
-448.131
-448.341
-448.682
-449.21
-449.963
-450.964
-452.231
-453.772
-455.582
-457.646
-459.93
-462.391
-464.994
-467.713
-470.519
-473.386
-476.277
-479.148
-481.959
-484.669
-487.237
-489.625
-491.792
-493.699
-495.311
-496.605
-497.552
-498.128
-498.306
-498.047
-497.328
-496.136
-494.46
-492.298
-489.657
-486.546
-482.998
-479.059
-474.766
-470.161
-465.278
-460.141
-454.795
-449.282
-443.636
-437.904
-432.114
-426.273
-420.388
-414.456
-408.446
-402.328
-396.053
-389.549
-382.784
-375.74
-368.413
-360.828
-353.004
-344.975
-336.811
-328.587
-320.396
-312.378
-304.681
-297.477
-291
-285.463
-281.083
-278.103
-276.7
-277.018
-279.189
-283.294
-289.383
-297.475
-307.53
-319.479
-333.234
-348.645
-365.529
-383.653
-402.716
-422.44
-442.561
-462.801
-482.921
-502.709
-521.96
-540.505
-558.223
-575.033
-590.886
-605.763
-619.658
-632.576
-644.572
-655.761
-666.275
-676.231
-685.726
-694.806
-703.515
-711.92
-720.011
-727.731
-734.965
-741.434
-746.875
-751.155
-754.101
-755.593
-755.685
-754.394
-751.835
-748.372
-744.246
-739.431
-733.86
-727.24
-718.886
-708.119
-694.203
-676.283
-653.814
-626.644
-594.734
-558.373
-518.501
-476.253
-432.866
-389.624
-347.475
-307.095
-269.233
-234.446
-202.666
-173.519
-146.411
-120.734
-96.203
-72.621
-49.614
-26.84
-4.249
17.957
39.326
59.49
78.39
96.048
112.481
127.711
141.779
154.879
167.379
179.555
191.542
203.405
215.114
226.681
238.158
249.529
260.74
271.746
282.485
292.916
303.018
312.712
321.925
330.597
338.654
346.061
352.807
358.88
364.297
369.091
373.288
376.921
380.037
382.667
384.854
386.647
388.094
389.259
390.2
390.958
391.58
392.097
392.533
392.91
393.239
393.519
393.751
393.938
394.077
394.175
394.232
394.245
394.212
394.128
393.989
393.796
393.546
393.24
392.876
392.455
391.98
391.455
390.882
390.264
389.6
388.89
388.133
387.331
386.482
385.588
384.647
383.661
382.633
381.565
380.462
379.325
378.161
376.973
375.767
374.549
373.325
372.101
370.884
369.679
368.493
367.333
366.203
365.109
364.056
363.049
362.092
361.19
360.346
359.564
358.847
358.196
357.613
357.102
356.661
356.293
355.998
355.776
355.628
355.551
355.545
355.608
355.737
355.929
356.18
356.486
356.842
357.243
357.684
358.16
358.666
359.197
359.747
360.313
360.89
361.473
362.058
362.641
363.218
363.787
364.345
364.891
365.422
365.939
366.44
366.926
367.396
367.853
368.293
368.719
369.129
369.526
369.908
370.276
370.631
370.973
371.304
371.626
371.938
372.24
372.531
372.811
373.076
373.322
373.544
373.734
373.885
373.987
374.032
374.007
373.901
373.702
373.4
372.983
372.443
371.767
370.944
369.963
368.817
367.498
365.997
364.308
362.426
360.351
358.092
355.656
353.049
350.27
347.309
344.157
340.811
337.269
333.527
329.586
325.449
321.139
316.707
312.199
307.657
303.109
298.556
294.01
289.509
285.095
280.831
276.782
272.974
269.463
266.349
263.644
261.296
259.169
256.954
254.378
251.29
247.454
242.63
236.811
230.075
222.702
215.358
208.55
202.634
198.225
195.881
195.774
197.967
202.078
207.02
211.997
216.289
218.456
217.023
210.883
198.877
181.286
160.303
137.628
115.265
94.913
76.18
60.218
50.403
51.915
73.216
121.726
199.886
306.076
434.137
576.04
727.256
883.91
1039.901
1186.035
1305.396
1377.032
1384.17
1317.909
1181.996
993.938
777.39
556.412
352.593
180.223
48.079
-38.489
-79.713
-80.634
-52.424
-10.828
28.313
52.837
60.254
55.99
49.235
49.629
59.815
76.231
93.169
104.606
108.559
106.691
101.599
95.615
89.614
83.812
78.37
73.542
69.934
67.676
66.448
66.108
66.432
67.04
67.696
67.972
67.298
65.536
62.79
59.207
55.096
50.761
46.386
42.24
38.629
35.69
33.48
31.998
31.137
30.821
31.003
31.61
32.566
33.81
35.268
36.873
38.566
40.279
41.961
43.578
45.105
46.533
47.865
49.109
50.292
51.441
52.576
53.716
54.879
56.081
57.351
58.721
60.22
61.88
63.733
65.805
68.123
70.707
73.564
76.704
80.137
83.873
87.93
92.32
97.038
102.085
107.454
113.126
119.077
125.262
131.615
138.083
144.631
151.23
157.874
164.548
171.231
177.905
184.555
191.168
197.741
204.257
210.682
217.013
223.261
229.467
235.716
242.046
248.446
254.887
261.305
267.624
273.771
279.632
285.068
289.955
294.179
297.654
300.331
302.126
302.929
302.606
300.982
297.941
293.435
287.436
279.955
271.039
260.756
249.236
236.674
223.231
209.044
194.229
178.86
163.046
146.927
130.653
114.398
98.306
82.475
67.002
51.968
37.417
23.374
9.812
-3.353
-16.17
-28.657
-40.818
-52.628
-64.077
-75.176
-85.927
-96.336
-106.405
-116.129
-125.506
-134.544
-143.232
-151.547
-159.449
-166.873
-173.778
-180.143
-185.956
-191.22
-195.941
-200.124
-203.785
-206.951
-209.648
-211.897
-213.72
-215.134
-216.161
-216.831
-217.178
-217.238
-217.047
-216.635
-216.031
-215.265
-214.363
-213.35
-212.246
-211.068
-209.833
-208.561
-207.272
-205.984
-204.717
-203.485
-202.305
-201.193
-200.161
-199.22
-198.379
-197.645
-197.024
-196.52
-196.137
-195.876
-195.74
-195.726
-195.836
-196.068
-196.419
-196.886
-197.465
-198.153
-198.944
-199.834
-200.816
-201.887
-203.038
-204.266
-205.563
-206.924
-208.344
-209.816
-211.333
-212.89
-214.48
-216.096
-217.733
-219.385
-221.045
-222.708
-224.37
-226.027
-227.674
-229.308
-230.925
-232.523
-234.098
-235.649
-237.172
-238.665
-240.127
-241.556
-242.949
-244.306
-245.624
-246.904
-248.143
-249.342
-250.498
-251.613
-252.685
-253.715
-254.704
-255.65
-256.557
-257.423
-258.251
-259.042
-259.797
-260.518
-261.206
-261.862
-262.489
-263.087
-263.659
-264.206
-264.73
-265.232
-265.714
-266.178
-266.625
-267.059
-267.479
-267.89
-268.292
-268.688
-269.079
-269.469
-269.859
-270.252
-270.648
-271.051
-271.462
-271.883
-272.314
-272.758
-273.214
-273.684
-274.169
-274.669
-275.185
-275.716
-276.263
-276.825
-277.403
-277.997
-278.605
-279.228
-279.866
-280.518
-281.185
-281.865
-282.559
-283.265
-283.983
-284.712
-285.452
-286.202
-286.961
-287.727
-288.5
-289.279
-290.063
-290.85
-291.639
-292.428
-293.217
-294.003
-294.786
-295.562
-296.332
-297.093
-297.845
-298.585
-299.314
-300.028
-300.728
-301.41
-302.073
-302.716
-303.334
-303.926
-304.488
-305.017
-305.511
-305.966
-306.38
-306.747
-307.066
-307.331
-307.54
-307.688
-307.772
-307.786
-307.728
-307.594
-307.381
-307.089
-306.714
-306.255
-305.71
-305.08
-304.364
-303.561
-302.672
-301.696
-300.636
-299.494
-298.272
-296.977
-295.613
-294.187
-292.711
-291.195
-289.651
-288.092
-286.533
-284.989
-283.478
-282.015
-280.615
-279.292
-278.06
-276.934
-275.928
-275.056
-274.329
-273.757
-273.351
-273.119
-273.069
-273.2
-273.506
-273.979
-274.613
-275.407
-276.373
-277.517
-278.842
-280.349
-282.043
-283.92
-285.977
-288.189
-290.501
-292.865
-295.235
-297.582
-299.898
-302.167
-304.348
-306.397
-308.253
-309.844
-311.137
-312.073
-312.556
-312.582
-312.219
-311.606
-311.037
-310.786
-311.029
-311.988
-313.87
-316.644
-320.169
-324.148
-327.974
-331.16
-333.318
-333.927
-332.643
-329.37
-324.048
-317.103
-309.345
-301.957
-296.869
-295.058
-296.74
-301.083
-305.501
-310.603
-318.72
-331.389
-351.188
-374.606
-394.584
-407.864
-410.411
-401.431
-380.975
-341.377
-275.182
-176.95
-45.225
111.333
282.352
458.329
629.512
787.557
918.419
1002.138
1019.924
958.8
819.461
619.968
387.397
151.393
-61.546
-237.41
-369.366
-455.176
-499.233
-503.999
-476.184
-428.689
-373.238
-325.144
-294.489
-280.591
-279.283
-280.667
-276.143
-265.492
-251.333
-238.795
-232.948
-233.621
-238.615
-245.703
-252.133
-256.837
-259.733
-260.32
-258.657
-255.176
-250.193
-244.166
-237.713
-231.29
-225.386
-220.646
-217.322
-215.348
-214.568
-214.653
-215.236
-216.022
-216.683
-216.866
-216.388
-215.191
-213.259
-210.664
-207.472
-203.725
-199.499
-194.874
-189.91
-184.662
-179.186
-173.536
-167.788
-162.029
-156.32
-150.702
-145.2
-139.816
-134.549
-129.389
-124.312
-119.286
-114.284
-109.286
-104.271
-99.224
-94.119
-88.927
-83.616
-78.152
-72.501
-66.633
-60.52
-54.14
-47.477
-40.518
-33.256
-25.685
-17.807
-9.616
-1.107
7.728
16.903
26.425
36.285
46.466
56.94
67.661
78.589
89.678
100.868
112.109
123.365
134.607
145.835
157.047
168.223
179.33
190.31
201.108
211.696
222.053
232.161
242.03
251.661
261.066
270.293
279.362
288.247
296.895
305.194
313.009
320.248
326.843
332.743
337.921
342.316
345.872
348.549
350.284
351.016
350.671
349.128
346.304
342.193
336.831
330.332
322.859
314.529
305.445
295.71
285.402
274.617
263.449
251.967
240.249
228.396
216.522
204.792
193.348
182.272
171.61
161.359
151.471
141.933
132.739
123.872
115.338
107.144
99.297
91.834
84.792
78.182
72.004
66.227
60.822
55.784
51.123
46.862
43.04
39.681
36.802
34.429
32.571
31.226
30.388
30.03
30.119
30.627
31.535
32.822
34.476
36.474
38.79
41.396
44.263
47.362
50.663
54.133
57.742
61.463
65.273
69.154
73.089
77.063
81.06
85.066
89.066
93.047
96.998
100.905
104.757
108.546
112.262
115.902
119.46
122.936
126.326
129.631
132.852
135.99
139.048
142.03
144.938
147.777
150.552
153.266
155.925
158.535
161.101
163.628
166.122
168.589
171.032
173.458
175.869
178.27
180.663
183.053
185.441
187.829
190.221
192.618
195.023
197.436
199.859
202.292
204.737
207.192
209.658
212.133
214.617
217.108
219.605
222.107
224.613
227.122
229.632
232.141
234.649
237.154
239.655
242.151
244.64
247.121
249.595
252.06
254.515
256.962
259.4
261.828
264.249
266.661
269.065
271.462
273.854
276.24
278.622
281
283.377
285.754
288.132
290.512
292.896
295.286
297.683
300.09
302.507
304.936
307.38
309.841
312.319
314.817
317.336
319.879
322.448
325.044
327.67
330.326
333.015
335.738
338.497
341.294
344.129
347.005
349.923
352.883
355.887
358.936
362.031
365.173
368.361
371.597
374.88
378.211
381.588
385.012
388.482
391.997
395.555
399.155
402.794
406.472
410.186
413.933
417.71
421.515
425.345
429.196
433.066
436.949
440.844
444.745
448.65
452.555
456.454
460.346
464.225
468.088
471.932
475.752
479.545
483.308
487.037
490.73
494.385
497.998
501.568
505.095
508.577
512.013
515.405
518.752
522.054
525.313
528.531
531.707
534.845
537.945
541.009
544.04
547.042
550.015
552.965
555.893
558.803
561.7
564.586
567.466
570.343
573.221
576.105
578.999
581.907
584.833
587.781
590.757
593.763
596.805
599.887
603.011
606.182
609.402
612.676
616.006
619.396
622.848
626.37
629.97
633.657
637.441
641.331
645.335
649.461
653.718
658.112
662.643
667.313
672.125
677.082
682.19
687.456
692.884
698.471
704.216
710.113
716.156
722.342
728.657
735.091
741.642
748.312
755.119
762.074
769.178
776.428
783.814
791.312
798.901
806.55
814.215
821.87
829.474
836.978
844.341
851.493
858.356
864.872
870.947
876.47
881.415
885.778
889.612
893.093
896.304
899.236
901.941
904.44
906.683
908.642
910.125
910.771
910.528
909.578
908.145
906.532
904.914
903.358
902.175
901.82
902.439
903.934
906.051
908.494
911.27
914.464
917.849
920.918
922.944
923.019
920.182
913.269
900.748
881.032
852.777
815.035
767.536
710.795
645.829
573.978
497.079
416.485
332.779
247.116
161.038
77.51
1.359
-64.361
-120.386
-171.107
-223.365
-281.928
-344.702
-402.941
-444.79
-457.919
-434.823
-375.91
-285.503
-171.645
-43.795
93.275
235.49
376.827
508.99
615.271
673.421
664.72
578.116
416.089
197.916
-49.314
-297.931
-523.089
-710.457
-853.515
-949.052
-999.155
-1008.399
-985.957
-946.935
-907.846
-882.858
-876.746
-884.657
-896.168
-899.915
-892.071
-875.81
-857.704
-844.895
-839.815
-841.062
-845.79
-850.919
-855.312
-858.99
-862.061
-865.008
-867.665
-869.468
-870.742
-871.19
-870.317
-868.944
-866.738
-864.149
-862.473
-859.479
-853.356
-841.661
-821.288
-794.607
-764.534
-734.109
-707.048
-682.915
-661.321
-642.926
-627.691
-616.93
-611.3
-609.897
-612.032
-616.686
-622.595
-629.012
-635.16
-640.326
-644.272
-647.013
-648.597
-649.254
-649.368
-649.162
-648.863
-648.626
-648.392
-648.063
-647.527
-646.606
-645.096
-642.878
-639.871
-636.061
-631.537
-626.412
-620.829
-614.934
-608.835
-602.599
-596.257
-589.819
-583.281
-576.623
-569.816
-562.823
-555.621
-548.195
-540.537
-532.631
-524.454
-515.975
-507.154
-497.974
-488.433
-478.544
-468.33
-457.823
-447.059
-436.089
-424.973
-413.771
-402.538
-391.325
-380.183
-369.165
-358.329
-347.733
-337.434
-327.487
-317.939
-308.838
-300.231
-292.159
-284.659
-277.764
-271.503
-265.9
-260.983
-256.774
-253.292
-250.552
-248.565
-247.337
-246.872
-247.167
-248.215
-250.004
-252.517
-255.734
-259.631
-264.18
-269.349
-275.104
-281.407
-288.218
-295.494
-303.192
-311.265
-319.667
-328.348
-337.261
-346.357
-355.587
-364.902
-374.254
-383.597
-392.884
-402.071
-411.116
-419.976
-428.612
-436.988
-445.066
-452.815
-460.203
-467.202
-473.787
-479.937
-485.632
-490.857
-495.602
-499.857
-503.615
-506.876
-509.64
-511.909
-513.69
-514.989
-515.818
-516.187
-516.113
-515.611
-514.699
-513.397
-511.724
-509.701
-507.35
-504.695
-501.755
-498.555
-495.118
-491.466
-487.625
-483.62
-479.474
-475.214
-470.867
-466.459
-462.014
-457.557
-453.109
-448.69
-444.32
-440.014
-435.786
-431.648
-427.61
-423.686
-419.89
-416.233
-412.726
-409.379
-406.201
-403.202
-400.391
-397.772
-395.343
-393.101
-391.046
-389.18
-387.515
-386.049
-384.771
-383.667
-382.715
-381.891
-381.167
-380.498
-379.821
-379.076
-378.204
-377.169
-375.958
-374.553
-372.933
-371.076
-368.954
-366.566
-363.939
-361.086
-358.014
-354.738
-351.269
-347.658
-344.001
-340.368
-336.808
-333.331
-329.891
-326.449
-322.966
-319.377
-315.601
-311.52
-306.963
-301.803
-295.949
-289.298
-281.764
-273.213
-263.456
-252.356
-239.824
-225.812
-210.343
-193.441
-175.134
-155.516
-134.721
-112.932
-90.388
-67.284
-43.763
-19.984
3.903
27.712
51.209
74.205
96.561
118.148
138.88
158.667
177.417
195.094
211.71
227.3
241.936
255.652
268.442
280.306
291.244
301.266
310.406
318.672
326.045
332.515
338.07
342.707
346.431
349.226
351.053
351.873
351.645
350.348
347.988
344.574
340.123
334.659
328.211
320.823
312.553
303.457
293.587
282.999
271.742
259.879
247.48
234.614
221.35
207.755
193.893
179.827
165.619
151.328
137.007
122.707
108.473
94.352
80.391
66.632
53.117
39.883
26.966
14.395
2.2
-9.596
-20.972
-31.914
-42.412
-52.456
-62.044
-71.174
-79.849
-88.075
-95.86
-103.214
-110.151
-116.686
-122.835
-128.617
-134.052
-139.162
-143.967
-148.489
-152.752
-156.778
-160.589
-164.207
-167.654
-170.951
-174.118
-177.174
-180.138
-183.026
-185.853
-188.634
-191.381
-194.103
-196.812
-199.511
-202.207
-204.902
-207.598
-210.292
-212.985
-215.67
-218.343
-220.998
-223.627
-226.224
-228.779
-231.285
-233.732
-236.111
-238.411
-240.625
-242.744
-244.758
-246.659
-248.439
-250.092
-251.612
-252.997
-254.244
-255.352
-256.324
-257.163
-257.876
-258.47
-258.955
-259.341
-259.643
-259.874
-260.048
-260.179
-260.283
-260.375
-260.473
-260.591
-260.744
-260.946
-261.211
-261.553
-261.987
-262.52
-263.153
-263.889
-264.729
-265.681
-266.762
-267.983
-269.351
-270.873
-272.555
-274.404
-276.424
-278.602
-280.902
-283.279
-285.694
-288.117
-290.538
-292.953
-295.329
-297.62
-299.766
-301.708
-303.409
-304.849
-305.972
-306.702
-307.053
-307.118
-307.11
-307.353
-308.092
-309.464
-311.644
-314.823
-319.02
-324.164
-329.929
-335.632
-340.723
-344.811
-347.408
-348.101
-346.707
-343.11
-337.674
-331.422
-325.267
-320.096
-317.132
-317.558
-322.408
-332.786
-348.446
-367.262
-386.885
-404.35
-417.88
-428.634
-437.064
-442.219
-439.531
-418.258
-368.24
-282.562
-160.232
-10.096
157.543
333.217
507.567
673.699
818.59
921.613
961.668
921.511
798.013
607.698
378.411
141.788
-74.711
-257.339
-400.013
-500.075
-558.966
-575.453
-554.329
-508.842
-453.853
-408.055
-381.081
-370.478
-369.111
-364.509
-350.548
-329.782
-307.357
-291.005
-284.304
-285.595
-291.931
-299.63
-306.642
-312.617
-317.361
-320.668
-322.099
-321.469
-319.129
-315.556
-311.253
-306.687
-302.179
-298.17
-295.209
-293.5
-292.975
-293.452
-294.573
-296.011
-297.561
-298.956
-299.9
-300.252
-299.941
-298.962
-297.42
-295.396
-292.94
-290.13
-287.038
-283.718
-280.24
-276.668
-273.058
-269.486
-266.006
-262.651
-259.454
-256.423
-253.561
-250.864
-248.309
-245.86
-243.493
-241.182
-238.906
-236.645
-234.369
-232.043
-229.633
-227.103
-224.421
-221.556
-218.476
-215.15
-211.555
-207.669
-203.473
-198.953
-194.089
-188.864
-183.26
-177.263
-170.857
-164.033
-156.781
-149.092
-140.965
-132.4
-123.402
-113.977
-104.137
-93.892
-83.26
-72.259
-60.913
-49.245
-37.283
-25.058
-12.602
0.048
12.854
25.778
38.777
51.809
64.83
77.796
90.662
103.382
115.912
128.208
140.226
151.922
163.256
174.187
184.676
194.687
204.186
213.14
221.519
229.299
236.455
242.969
248.823
254.004
258.504
262.315
265.436
267.867
269.613
270.682
271.086
270.838
269.956
268.463
266.38
263.735
260.556
256.873
252.719
248.127
243.133
237.773
232.084
226.103
219.867
213.415
206.783
200.009
193.128
186.176
179.187
172.192
165.224
158.31
151.478
144.753
138.158
131.714
125.44
119.35
113.46
107.781
102.321
97.089
92.088
87.322
82.792
78.496
74.432
70.595
66.982
63.584
60.396
57.409
54.615
52.005
49.571
47.305
45.198
43.242
41.431
39.757
38.217
36.804
35.517
34.352
33.309
32.389
31.593
30.925
30.388
29.989
29.733
29.628
29.682
29.905
30.307
30.897
31.687
32.688
33.91
35.364
37.061
39.011
41.224
43.709
46.472
49.521
52.861
56.496
60.428
64.659
69.188
74.011
79.125
84.523
90.197
96.136
102.328
108.758
115.412
122.27
129.315
136.526
143.881
151.359
158.935
166.586
174.29
182.02
189.754
197.469
205.14
212.747
220.268
227.681
234.969
242.113
249.096
255.903
262.52
268.935
275.139
281.122
286.877
292.402
297.693
302.751
307.578
312.179
316.56
320.73
324.7
328.48
332.086
335.529
338.828
341.997
345.052
348.011
350.889
353.704
356.469
359.199
361.905
364.599
367.292
369.991
372.705
375.44
378.203
380.998
383.832
386.708
389.627
392.588
395.587
398.616
401.667
404.727
407.78
410.808
413.79
416.707
419.54
422.268
424.867
427.312
429.568
431.611
433.423
434.992
436.308
437.37
438.177
438.743
439.09
439.241
439.216
439.025
438.67
438.153
437.475
436.642
435.668
434.545
433.243
431.725
429.943
427.843
425.373
422.454
418.992
414.911
410.159
404.72
398.606
391.831
384.427
376.43
367.877
358.85
349.465
339.849
330.163
320.577
311.265
302.448
294.372
287.237
281.198
276.353
272.751
270.444
269.458
269.797
271.46
274.393
278.506
283.716
289.875
296.804
304.312
312.13
319.952
327.533
334.671
341.213
347.063
352.107
356.242
359.401
361.508
362.523
362.411
361.111
358.614
354.966
350.234
344.564
338.143
331.103
323.545
315.55
307.151
298.4
289.348
280.01
270.413
260.589
250.583
240.481
230.345
220.188
210.014
199.782
189.415
178.884
168.161
157.219
146.084
134.784
123.316
111.717
100.029
88.271
76.489
64.724
52.963
41.212
29.604
18.31
7.349
-3.206
-13.275
-23.012
-31.767
-38.917
-45.251
-51
-57.677
