Name,Kaushik Vada
Date of Birth,"Mar 17, 2005"
Recorded Date,2024-06-22 01:53:55 -0800
Classification,Sinus Rhythm
Symptoms,
Software Version,1.90
Device,"Watch6,15"
Sample Rate,512 hertz


Lead,Lead I
Unit,µV

148.16
134.484
123.181
114.334
104.104
91.44
77.29
62.56
49.287
38.653
30.503
24.727
20.963
18.565
17.03
15.789
14.146
11.696
8.282
3.826
-1.558
-7.716
-14.516
-21.758
-29.258
-36.863
-44.401
-51.688
-58.522
-64.734
-70.221
-74.919
-78.779
-81.766
-83.858
-85.062
-85.443
-85.061
-83.972
-82.226
-79.862
-76.94
-73.549
-69.793
-65.774
-61.568
-57.216
-52.74
-48.161
-43.503
-38.78
-33.989
-29.12
-24.175
-19.179
-14.19
-9.254
-4.406
0.323
4.919
9.347
13.548
17.466
21.03
24.176
26.88
29.124
30.885
32.173
33
33.42
33.576
33.618
33.698
33.985
34.597
35.714
37.619
40.501
44.423
49.268
54.607
59.937
64.861
68.881
71.419
72.111
70.834
68.12
65.279
63.809
65.098
70.279
80.175
95.172
114.894
137.578
160.141
178.664
188.774
186.727
169.377
133.757
77.991
1.78
-93.931
-203.882
-318.753
-430.384
-530.513
-617.697
-698.844
-774.551
-840.988
-882.625
-870.36
-786.425
-624.569
-396.078
-134.751
125.059
351.543
520.126
621.136
655.191
630.318
561.193
468.172
369.381
281.468
216.129
172.644
145.702
126.041
105.43
83.754
64.19
52.324
51.467
59.489
72.341
84.616
92.442
95.094
92.961
87.127
79.06
69.899
60.833
53.415
48.731
47.153
48.653
52.729
58.653
65.783
73.474
81.022
87.955
94.021
99.045
102.982
105.832
107.59
108.297
108.031
106.862
104.867
102.183
98.99
95.463
91.766
88.014
84.262
80.563
76.962
73.494
70.192
67.076
64.142
61.396
58.852
56.503
54.326
52.261
50.215
48.108
45.883
43.494
40.915
38.124
35.101
31.843
28.358
24.652
20.731
16.592
12.226
7.632
2.816
-2.212
-7.431
-12.824
-18.376
-24.071
-29.889
-35.813
-41.826
-47.914
-54.067
-60.27
-66.507
-72.757
-78.996
-85.203
-91.353
-97.421
-103.381
-109.205
-114.869
-120.347
-125.617
-130.654
-135.434
-139.936
-144.137
-148.017
-151.555
-154.733
-157.533
-159.94
-161.94
-163.522
-164.675
-165.392
-165.667
-165.496
-164.879
-163.817
-162.312
-160.368
-157.99
-155.188
-151.97
-148.348
-144.337
-139.951
-135.206
-130.123
-124.722
-119.024
-113.052
-106.83
-100.383
-93.735
-86.914
-79.947
-72.86
-65.682
-58.441
-51.166
-43.884
-36.622
-29.408
-22.267
-15.225
-8.306
-1.533
5.073
11.491
17.701
23.686
29.428
34.912
40.125
45.054
49.688
54.018
58.038
61.74
65.121
68.179
70.912
73.322
75.41
77.18
78.64
79.794
80.654
81.228
81.527
81.566
81.356
80.913
80.251
79.386
78.332
77.105
75.722
74.197
72.546
70.783
68.923
66.98
64.968
62.898
60.784
58.636
56.464
54.279
52.088
49.898
47.717
45.549
43.399
41.271
39.167
37.088
35.035
33.007
31.003
29.02
27.056
25.105
23.165
21.229
19.293
17.352
15.401
13.435
11.45
9.442
7.409
5.35
3.262
1.145
-1
-3.169
-5.361
-7.569
-9.789
-12.014
-14.234
-16.437
-18.607
-20.731
-22.793
-24.777
-26.663
-28.433
-30.071
-31.56
-32.886
-34.034
-34.985
-35.721
-36.221
-36.469
-36.446
-36.137
-35.525
-34.596
-33.341
-31.762
-29.859
-27.631
-25.073
-22.169
-18.908
-15.291
-11.313
-6.978
-2.3
2.705
8
13.531
19.246
25.097
31.044
37.065
43.126
49.186
55.2
61.105
66.848
72.395
77.693
82.699
87.425
91.89
96.161
100.355
104.534
108.756
113.111
117.661
122.504
127.754
133.454
139.705
146.676
154.437
162.991
172.137
181.3
189.839
197.166
202.577
205.392
205.158
201.701
195.601
188.321
181.58
177.04
176.189
180.209
189.825
204.861
223.527
242.446
257.421
263.729
256.776
232.417
186.548
118.082
30.744
-70.374
-178.994
-292.07
-413.925
-545.048
-677.035
-792.456
-862.445
-862.721
-787.36
-644.247
-453.176
-239.355
-20.634
187.265
364.27
495.947
573.965
596.189
577.406
534.803
477.567
417.413
356.587
294.114
237.184
184.688
137.014
97.907
65.106
41.546
29.462
26.61
32.164
43.29
56.67
70.491
82.836
92.215
98.253
101.345
102.174
101.342
99.44
97.086
95.019
94.288
95.431
98.326
102.691
108.117
114.265
120.96
127.878
134.505
140.501
145.681
149.988
153.559
156.501
158.884
160.852
162.548
164.089
165.596
167.141
168.729
170.365
172.024
173.676
175.324
176.974
178.643
180.339
182.04
183.713
185.314
186.783
188.066
189.111
189.849
190.228
190.215
189.782
188.923
187.639
185.92
183.754
181.134
178.05
174.499
170.486
166.01
161.081
155.71
149.911
143.705
137.112
130.151
122.842
115.205
107.257
99.023
90.525
81.791
72.848
63.727
54.46
45.082
35.626
26.129
16.625
7.148
-2.269
-11.591
-20.786
-29.822
-38.668
-47.296
-55.676
-63.782
-71.589
-79.073
-86.213
-92.99
-99.384
-105.381
-110.966
-116.128
-120.856
-125.142
-128.981
-132.37
-135.306
-137.79
-139.825
-141.416
-142.569
-143.293
-143.599
-143.499
-143.007
-142.14
-140.915
-139.348
-137.46
-135.271
-132.8
-130.069
-127.098
-123.909
-120.523
-116.963
-113.248
-109.402
-105.446
-101.399
-97.285
-93.123
-88.935
-84.741
-80.562
-76.418
-72.328
-68.312
-64.388
-60.573
-56.886
-53.342
-49.956
-46.744
-43.718
-40.891
-38.274
-35.877
-33.708
-31.777
-30.089
-28.65
-27.466
-26.539
-25.875
-25.474
-25.338
-25.469
-25.866
-26.528
-27.453
-28.639
-30.081
-31.774
-33.713
-35.891
-38.3
-40.932
-43.777
-46.824
-50.063
-53.481
-57.065
-60.801
-64.675
-68.673
-72.779
-76.978
-81.256
-85.598
-89.989
-94.415
-98.862
-103.317
-107.764
-112.189
-116.579
-120.92
-125.198
-129.4
-133.514
-137.526
-141.426
-145.202
-148.843
-152.34
-155.682
-158.858
-161.858
-164.674
-167.298
-169.72
-171.933
-173.931
-175.708
-177.259
-178.581
-179.671
-180.526
-181.141
-181.512
-181.635
-181.503
-181.11
-180.45
-179.516
-178.305
-176.812
-175.038
-172.984
-170.655
-168.054
-165.187
-162.058
-158.671
-155.028
-151.135
-146.999
-142.629
-138.041
-133.247
-128.267
-123.125
-117.844
-112.446
-106.938
-101.314
-95.568
-89.707
-83.74
-77.686
-71.567
-65.408
-59.247
-53.141
-47.149
-41.333
-35.736
-30.376
-25.276
-20.46
-15.975
-11.903
-8.306
-5.208
-2.611
-0.5
1.153
2.357
3.157
3.672
4.049
4.451
5.011
5.797
6.85
8.241
10.178
12.857
16.265
20.146
23.999
27.291
29.682
30.795
29.932
26.542
20.613
12.754
4.463
-2.671
-7.476
-8.495
-4.055
6.776
22.512
39.278
52.417
58.191
57.633
53.616
44.063
23.498
-17.821
-90.59
-195.546
-326.775
-475.473
-626.952
-765.662
-874.359
-932.336
-926.207
-854.448
-726.433
-558.511
-363.659
-152.411
63.834
266.824
428.415
528.527
561.207
538.101
487.321
429.025
372.571
318.284
257.292
188.389
116.825
48.887
-6.538
-45.247
-68.261
-77.494
-76.173
-67.863
-54.926
-39.785
-25.611
-14.952
-8.992
-7.904
-10.91
-16.691
-24.24
-32.627
-40.414
-46.197
-49.295
-49.592
-47.472
-43.661
-38.655
-32.79
-26.615
-20.73
-15.548
-11.362
-8.244
-6.066
-4.775
-4.358
-4.739
-5.826
-7.472
-9.472
-11.686
-14.032
-16.445
-18.91
-21.398
-23.867
-26.294
-28.658
-30.951
-33.187
-35.365
-37.474
-39.523
-41.532
-43.554
-45.68
-47.982
-50.505
-53.286
-56.341
-59.684
-63.331
-67.281
-71.516
-76.021
-80.775
-85.77
-91.001
-96.458
-102.121
-107.965
-113.955
-120.062
-126.258
-132.513
-138.797
-145.08
-151.332
-157.53
-163.653
-169.68
-175.587
-181.347
-186.934
-192.323
-197.489
-202.407
-207.053
-211.402
-215.434
-219.13
-222.473
-225.448
-228.041
-230.24
-232.036
-233.421
-234.389
-234.937
-235.06
-234.761
-234.04
-232.902
-231.354
-229.404
-227.063
-224.342
-221.255
-217.819
-214.05
-209.965
-205.583
-200.923
-196.005
-190.852
-185.485
-179.926
-174.198
-168.325
-162.331
-156.239
-150.073
-143.855
-137.61
-131.357
-125.121
-118.92
-112.777
-106.71
-100.737
-94.878
-89.148
-83.564
-78.14
-72.889
-67.823
-62.953
-58.287
-53.833
-49.598
-45.586
-41.802
-38.247
-34.923
-31.83
-28.967
-26.332
-23.921
-21.73
-19.755
-17.988
-16.422
-15.05
-13.864
-12.853
-12.008
-11.318
-10.772
-10.359
-10.067
-9.884
-9.796
-9.792
-9.859
-9.984
-10.156
-10.362
-10.591
-10.832
-11.075
-11.311
-11.532
-11.731
-11.902
-12.037
-12.134
-12.189
-12.197
-12.158
-12.068
-11.929
-11.738
-11.498
-11.209
-10.875
-10.498
-10.082
-9.631
-9.151
-8.645
-8.121
-7.582
-7.036
-6.489
-5.949
-5.42
-4.912
-4.429
-3.979
-3.567
-3.199
-2.878
-2.606
-2.385
-2.214
-2.092
-2.018
-1.987
-1.995
-2.036
-2.105
-2.194
-2.297
-2.404
-2.506
-2.591
-2.645
-2.653
-2.6
-2.469
-2.244
-1.909
-1.447
-0.845
-0.092
0.824
1.914
3.187
4.656
6.334
8.228
10.347
12.699
15.286
18.11
21.17
24.457
27.959
31.666
35.57
39.671
43.979
48.498
53.224
58.148
63.258
68.533
73.953
79.478
85.052
90.622
96.13
101.532
106.801
111.893
116.762
121.355
125.591
129.404
132.766
135.664
138.092
140.073
141.621
142.769
143.63
144.336
145.034
145.861
146.906
148.221
149.899
152.147
155.113
158.778
162.898
166.992
170.645
173.655
175.786
176.508
175.401
172.462
168.259
164.106
161.145
160.001
161.379
166.289
175.616
187.906
199.063
204.695
200.708
188.841
176.563
165.563
153.929
132.852
83.531
-1.811
-121.972
-270.052
-423.771
-562.998
-670.901
-727.812
-725.937
-665.77
-553.893
-407.592
-240.93
-62.35
119.087
295.72
452.73
569.998
636.568
651.086
624.367
576.102
519.417
460.494
400.349
336.271
270.437
208.487
156.551
120.083
100.262
95.513
103.158
119.25
140.124
162.328
182.049
196.907
206.036
209.254
207.394
201.808
193.781
184.898
176.997
171.158
167.751
166.819
167.915
170.475
174.05
178.046
181.778
184.86
187.13
188.498
189.017
188.755
187.751
186.143
184.137
181.856
179.382
176.79
174.119
171.436
168.815
166.275
163.805
161.398
159.05
156.778
154.624
152.593
150.667
148.819
147.002
145.181
143.329
141.405
139.357
137.143
134.73
132.102
129.264
126.21
122.934
119.424
115.671
111.67
107.423
102.929
98.192
93.213
87.999
82.561
76.914
71.073
65.051
58.862
52.517
46.032
39.425
32.714
25.918
19.059
12.159
5.243
-1.662
-8.53
-15.333
-22.046
-28.642
-35.093
-41.374
-47.46
-53.324
-58.942
-64.292
-69.349
-74.094
-78.506
-82.566
-86.259
-89.568
-92.481
-94.987
-97.076
-98.743
-99.981
-100.789
-101.165
-101.111
-100.631
-99.729
-98.414
-96.693
-94.578
-92.081
-89.219
-86.006
-82.462
-78.604
-74.454
-70.034
-65.365
-60.471
-55.376
-50.104
-44.679
-39.127
-33.472
-27.739
-21.952
-16.136
-10.314
-4.507
1.262
6.972
12.604
18.139
23.561
28.852
33.998
38.986
43.803
48.439
52.884
57.131
61.173
65.005
68.624
72.027
75.215
78.187
80.946
83.495
85.839
87.984
89.936
91.703
93.293
94.716
95.982
97.1
98.08
98.934
99.672
100.304
100.84
101.29
101.664
101.969
102.215
102.408
102.555
102.661
102.731
102.767
102.774
102.752
102.702
102.624
102.518
102.381
102.211
102.003
101.754
101.456
101.104
100.689
100.203
99.636
98.979
98.223
97.356
96.369
95.253
93.998
92.593
91.03
89.3
87.395
85.308
83.032
80.563
77.897
75.034
71.972
68.715
65.265
61.627
57.807
53.813
49.653
45.338
40.878
36.286
31.575
26.763
21.868
16.91
11.915
6.906
1.909
-3.05
-7.944
-12.747
-17.436
-21.988
-26.384
-30.602
-34.62
-38.417
-41.973
-45.269
-48.289
-51.016
-53.439
-55.548
-57.338
-58.808
-59.962
-60.8
-61.32
-61.513
-61.362
-60.856
-59.996
-58.782
-57.219
-55.322
-53.105
-50.608
-47.889
-44.999
-41.993
-38.922
-35.815
-32.725
-29.708
-26.816
-24.135
-21.727
-19.606
-17.796
-16.31
-15.135
-14.289
-13.723
-13.3
-12.887
-12.316
-11.449
-10.248
-8.585
-6.262
-3.172
0.76
5.381
10.178
14.749
18.889
22.243
24.432
25.15
24.088
21.644
19.089
17.501
17.508
19.943
25.688
35.178
48.798
64.402
76.737
83.096
82.497
75.439
65.939
50.487
19.03
-34.933
-117.225
-223.584
-337.994
-451.466
-559.796
-658.408
-746.476
-810.74
-828.002
-788.227
-689.81
-546.129
-381.438
-205.232
-24.988
152.817
319.392
448.901
524.039
540.807
506.924
448.624
385.498
325.593
271.87
219.006
165.643
116.617
76.884
51.124
40.319
42.084
52.614
67.557
83.65
97.883
107.774
112.327
111.215
104.842
94.694
82.429
69.634
58.158
49.246
43.34
40.612
40.732
43.032
46.911
51.629
56.376
60.69
64.352
67.258
69.467
70.995
71.777
71.806
71.108
69.685
67.572
64.81
61.469
57.701
53.672
49.544
45.45
41.456
37.603
33.918
30.414
27.103
24.009
21.157
18.574
16.294
14.322
12.648
11.235
10.015
8.924
7.896
6.878
5.835
4.744
3.59
2.369
1.089
-0.251
-1.657
-3.136
-4.706
-6.377
-8.155
-10.04
-12.031
-14.12
-16.302
-18.566
-20.905
-23.312
-25.781
-28.31
-30.898
-33.541
-36.235
-38.972
-41.741
-44.531
-47.329
-50.118
-52.882
-55.602
-58.261
-60.841
-63.324
-65.694
-67.931
-70.019
-71.941
-73.679
-75.219
-76.546
-77.645
-78.503
-79.11
-79.455
-79.53
-79.329
-78.845
-78.077
-77.023
-75.684
-74.06
-72.157
-69.978
-67.53
-64.821
-61.86
-58.658
-55.227
-51.582
-47.739
-43.716
-39.53
-35.202
-30.752
-26.2
-21.569
-16.881
-12.157
-7.419
-2.69
2.01
6.658
11.234
15.719
20.095
24.343
28.449
32.396
36.172
39.765
43.164
46.36
49.345
52.112
54.658
56.977
59.068
60.929
62.562
63.968
65.15
66.114
66.864
67.408
67.753
67.908
67.883
67.688
67.334
66.833
66.196
65.435
64.563
63.59
62.529
61.39
60.184
58.92
57.608
56.256
54.87
53.457
52.023
50.572
49.11
47.639
46.162
44.681
43.197
41.711
40.221
38.727
37.225
35.712
34.186
32.642
31.076
29.483
27.859
26.197
24.494
22.743
20.94
19.079
17.154
15.161
13.096
10.956
8.737
6.438
4.058
1.597
-0.943
-3.56
-6.25
-9.01
-11.836
-14.723
-17.663
-20.651
-23.678
-26.737
-29.817
-32.906
-35.987
-39.047
-42.07
-45.039
-47.938
-50.749
-53.456
-56.047
-58.511
-60.838
-63.016
-65.031
-66.869
-68.517
-69.962
-71.194
-72.196
-72.961
-73.478
-73.746
-73.768
-73.546
-73.075
-72.347
-71.344
-70.05
-68.458
-66.562
-64.361
-61.867
-59.098
-56.085
-52.886
-49.549
-46.12
-42.642
-39.143
-35.655
-32.218
-28.87
-25.655
-22.617
-19.789
-17.185
-14.793
-12.569
-10.44
-8.323
-6.103
-3.66
-0.854
2.468
6.437
11.179
16.787
23.363
31.069
39.981
50.038
60.984
72.308
83.429
93.86
103.046
110.286
115.148
117.567
117.969
117.552
117.612
119.131
123.135
130.611
141.891
156.411
172.459
186.881
196.245
197.187
186.041
159.468
114.494
50.916
-27.506
-116.057
-209.117
-303.396
-400.783
-499.583
-592.047
-666.949
-705.433
-690.443
-617.88
-488.442
-311.334
-109.227
97.715
285.387
427.41
517.625
557.546
556.044
530.44
484.155
418.377
339.072
253.591
178.568
127.003
99.216
87.436
80.016
69.198
56.422
48.74
50.313
61.291
77.924
93.338
103.93
109.221
109.215
105.077
98
88.42
77.535
67.205
58.364
51.43
46.593
43.454
41.599
40.8
40.553
40.196
39.399
38
35.956
33.431
30.52
27.249
23.706
19.979
16.112
12.151
8.117
4.007
-0.143
-4.295
-8.429
-12.524
-16.577
-20.596
-24.589
-28.567
-32.549
-36.548
-40.568
-44.609
-48.667
-52.743
-56.842
-60.974
-65.149
-69.375
-73.655
-77.995
-82.394
-86.847
-91.346
-95.877
-100.425
-104.975
-109.516
-114.037
-118.527
-122.972
-127.358
-131.671
-135.895
-140.013
-144.008
-147.86
-151.55
-155.06
-158.375
-161.479
-164.358
-166.996
-169.382
-171.504
-173.352
-174.914
-176.183
-177.151
-177.811
-178.158
-178.188
-177.9
-177.293
-176.367
-175.124
-173.57
-171.708
-169.546
-167.093
-164.357
-161.35
-158.084
-154.574
-150.834
-146.882
-142.733
-138.407
-133.923
-129.3
-124.56
-119.722
-114.807
-109.835
-104.827
-99.802
-94.78
-89.779
-84.819
-79.916
-75.088
-70.352
-65.723
-61.216
-56.844
-52.62
-48.557
-44.664
-40.953
-37.43
-34.105
-30.983
-28.069
-25.368
-22.882
-20.612
-18.559
-16.722
-15.098
-13.685
-12.477
-11.469
-10.655
-10.027
-9.579
-9.302
-9.187
-9.226
-9.407
-9.722
-10.161
-10.713
-11.367
-12.113
-12.939
-13.836
-14.791
-15.793
-16.833
-17.899
-18.98
-20.067
-21.147
-22.213
-23.254
-24.26
-25.225
-26.14
-26.999
-27.796
-28.527
-29.188
-29.777
-30.293
-30.736
-31.105
-31.401
-31.628
-31.786
-31.879
-31.912
-31.888
-31.813
-31.694
-31.537
-31.35
-31.141
-30.918
-30.691
-30.468
-30.258
-30.071
-29.917
-29.805
-29.747
-29.751
-29.829
-29.99
-30.243
-30.598
-31.06
-31.636
-32.329
-33.142
-34.076
-35.131
-36.305
-37.596
-38.998
-40.507
-42.118
-43.823
-45.615
-47.483
-49.415
-51.398
-53.417
-55.452
-57.486
-59.498
-61.47
-63.38
-65.21
-66.944
-68.564
-70.056
-71.403
-72.588
-73.596
-74.409
-75.012
-75.389
-75.528
-75.421
-75.065
-74.456
-73.597
-72.492
-71.145
-69.557
-67.72
-65.616
-63.231
-60.562
-57.61
-54.38
-50.884
-47.138
-43.175
-39.043
-34.792
-30.47
-26.114
-21.752
-17.417
-13.15
-9.013
-5.088
-1.424
1.958
5.033
7.808
10.279
12.432
14.34
16.112
17.843
19.675
21.733
24.031
26.696
29.924
33.774
38.348
43.62
49.15
54.484
59.503
63.949
67.127
68.79
68.83
66.9
65.606
67.886
72.951
81.682
90.913
94.446
96.796
101.709
114.323
144.525
182.971
213.528
221.438
186.825
111.74
13.862
-92.903
-191.665
-279.835
-371.005
-469.627
-571.398
-662.884
-716.263
-709.297
-637.28
-503.388
-321.949
-117.694
91.371
284.759
438.423
544.492
600.398
612.302
600.324
574.562
539.138
496.436
441.214
374.425
303.266
233.918
174.147
129.631
101.149
87.589
86.702
95.159
109.515
127.062
144.85
159.417
168.852
172.558
170.602
164.239
155.06
144.135
132.808
122.759
114.841
109.376
106.416
105.389
105.661
106.855
108.434
109.802
110.697
110.973
110.556
109.55
107.991
105.885
103.351
100.54
97.539
94.423
91.228
87.972
84.725
81.55
78.466
75.463
72.509
69.583
66.689
63.849
61.072
58.351
55.658
52.951
50.201
47.381
44.46
41.4
38.154
34.688
30.988
27.056
22.899
18.518
13.912
9.079
4.023
-1.25
-6.729
-12.403
-18.26
-24.288
-30.468
-36.778
-43.194
-49.691
-56.249
-62.848
-69.467
-76.083
-82.673
-89.213
-95.681
-102.053
-108.304
-114.408
-120.339
-126.073
-131.584
-136.85
-141.848
-146.557
-150.956
-155.027
-158.753
-162.118
-165.108
-167.711
-169.916
-171.717
-173.106
-174.079
-174.635
-174.772
-174.494
-173.805
-172.71
-171.218
-169.338
-167.082
-164.463
-161.497
-158.197
-154.583
-150.671
-146.481
-142.035
-137.355
-132.465
-127.388
-122.149
-116.775
-111.29
-105.721
-100.095
-94.437
-88.773
-83.129
-77.529
-71.997
-66.558
-61.232
-56.042
-51.008
-46.148
-41.48
-37.02
-32.781
-28.777
-25.019
-21.517
-18.279
-15.312
-12.62
-10.208
-8.077
-6.227
-4.658
-3.367
-2.349
-1.599
-1.108
-0.868
-0.869
-1.098
-1.544
-2.191
-3.026
-4.033
-5.196
-6.498
-7.924
-9.456
-11.078
-12.773
-14.524
-16.317
-18.135
-19.965
-21.792
-23.606
-25.393
-27.145
-28.852
-30.506
-32.1
-33.63
-35.091
-36.478
-37.791
-39.026
-40.186
-41.27
-42.28
-43.221
-44.096
-44.913
-45.676
-46.395
-47.077
-47.731
-48.366
-48.99
-49.615
-50.248
-50.898
-51.576
-52.29
-53.048
-53.857
-54.724
-55.655
-56.654
-57.723
-58.864
-60.074
-61.351
-62.692
-64.091
-65.541
-67.036
-68.566
-70.122
-71.695
-73.272
-74.842
-76.39
-77.9
-79.354
-80.731
-82.011
-83.173
-84.194
-85.054
-85.733
-86.211
-86.474
-86.507
-86.298
-85.83
-85.091
-84.069
-82.756
-81.143
-79.222
-76.99
-74.451
-71.607
-68.469
-65.049
-61.358
-57.401
-53.184
-48.698
-43.938
-38.912
-33.624
-28.083
-22.309
-16.322
-10.162
-3.89
2.441
8.772
15.04
21.202
27.199
32.97
38.459
43.582
48.261
52.464
56.161
59.335
61.996
64.126
65.756
67.01
68.027
68.988
70.065
71.351
72.985
75.166
78.013
81.586
85.743
90.023
93.998
97.404
99.919
101.206
100.981
99.092
96.062
93.142
91.533
92.037
95.358
102.234
113.358
129.22
147.283
162.208
169.672
165.561
150.949
132.268
109.68
81.609
42.163
-24.197
-122.689
-253.39
-414.199
-584.865
-744.154
-869.35
-931.646
-920.293
-838.729
-700.218
-529.788
-343.595
-148.069
49.648
241.894
409.544
526.42
577.504
558.149
480.544
372.345
257.86
159.47
91.617
52.72
36.158
30.237
23.639
14.425
5.594
3.44
11.987
29.444
51.166
70.845
84.828
92.811
95.333
93.694
89.188
82.661
75.389
69.067
64.602
62.275
62.114
63.693
66.558
70.361
74.554
78.501
81.873
84.543
86.487
87.853
88.723
89.115
89.118
88.814
88.252
87.472
86.493
85.316
83.976
82.529
81.014
79.46
77.878
76.264
74.614
72.922
71.178
69.369
67.483
65.516
63.465
61.327
59.094
56.753
54.289
51.682
48.921
45.994
42.894
39.618
36.165
32.539
28.746
24.794
20.689
16.436
12.042
7.513
2.857
-1.912
-6.783
-11.74
-16.767
-21.846
-26.955
-32.074
-37.181
-42.257
-47.28
-52.229
-57.082
-61.818
-66.414
-70.85
-75.103
-79.151
-82.972
-86.544
-89.846
-92.858
-95.56
-97.932
-99.958
-101.619
-102.903
-103.793
-104.279
-104.35
-103.998
-103.217
-102.002
-100.35
-98.261
-95.739
-92.793
-89.431
-85.664
-81.504
-76.958
-72.051
-66.805
-61.227
-55.327
-49.119
-42.613
-35.845
-28.866
-21.684
-14.307
-6.811
0.739
8.285
15.752
23.147
30.509
37.769
44.823
51.831
58.987
66.128
73.241
80.341
86.921
94.259
103.597
113.109
122.232
127.635
125.335
119.714
113.691
111.617
119.478
131.97
144.604
154.301
155.98
153.281
149.895
146.65
145.804
146.062
145.763
145.241
144.297
143.062
141.895
140.593
138.998
137.191
135.207
133.047
130.739
128.317
125.811
123.274
120.765
118.287
115.845
113.463
111.155
108.939
106.83
104.839
102.971
101.238
99.651
98.215
96.937
95.817
94.856
94.052
93.403
92.904
92.548
92.329
92.237
92.262
92.393
92.618
92.922
93.291
93.71
94.164
94.638
95.114
95.579
96.018
96.418
96.765
97.048
97.257
97.382
97.416
97.35
97.178
96.897
96.503
95.995
95.372
94.636
93.794
92.852
91.823
90.719
89.553
88.342
87.103
85.85
84.602
83.371
82.17
81.012
79.915
78.894
77.968
77.154
76.467
75.922
75.532
75.308
75.259
75.385
75.683
76.155
76.807
77.652
78.715
80.014
81.557
83.347
85.385
87.658
90.152
92.835
95.649
98.548
101.485
104.423
107.338
110.197
112.948
115.534
117.886
119.932
121.637
122.995
123.993
124.656
125.021
125.124
125.084
125.046
125.143
125.521
126.299
127.556
129.449
132.221
135.998
140.772
146.298
152.019
157.404
162.064
165.525
167.172
166.613
163.881
159.657
155.507
153.025
153.261
157.122
165.424
178.351
195.13
213.684
230.25
240.757
241.679
229.473
200.936
153.414
86.659
4.242
-88.591
-186.107
-285.992
-390.869
-499.927
-606.126
-694.676
-742.664
-734.048
-666.021
-546.794
-394.886
-225.372
-46.117
134.646
307.327
454.694
556.232
602.286
595.015
549.324
486.585
420.5
357.075
296.237
234.807
174.271
119.515
75.93
47.818
35.356
36.019
46.196
61.652
78.961
94.911
106.593
112.577
112.469
106.725
96.868
84.679
71.834
60.255
51.385
45.816
43.739
44.826
48.31
53.462
59.544
65.736
71.559
76.817
81.374
85.263
88.512
91.051
92.889
94.077
94.596
94.46
93.708
92.392
90.668
88.715
86.644
84.542
82.445
80.354
78.288
76.259
74.264
72.316
70.426
68.606
66.879
65.249
63.69
62.156
60.569
58.853
56.953
54.828
52.452
49.814
46.907
43.732
40.308
36.647
32.752
28.629
24.274
19.687
14.881
9.87
4.673
-0.685
-6.182
-11.797
-17.506
-23.287
-29.122
-34.991
-40.883
-46.78
-52.665
-58.517
-64.314
-70.033
-75.652
-81.147
-86.493
-91.668
-96.648
-101.413
-105.943
-110.221
-114.227
-117.946
-121.364
-124.466
-127.241
-129.677
-131.765
-133.498
-134.868
-135.871
-136.505
-136.767
-136.66
-136.186
-135.349
-134.155
-132.612
-130.729
-128.516
-125.984
-123.145
-120.014
-116.607
-112.94
-109.032
-104.902
-100.571
-96.062
-91.396
-86.596
-81.684
-76.683
-71.615
-66.505
-61.373
-56.242
-51.132
-46.067
-41.065
-36.147
-31.331
-26.636
-22.077
-17.67
-13.429
-9.368
-5.496
-1.826
1.635
4.877
7.896
10.685
13.24
15.561
17.644
19.493
21.108
22.493
23.655
24.598
25.331
25.862
26.202
26.359
26.346
26.173
25.853
25.397
24.818
24.129
23.341
22.467
21.517
20.503
19.434
18.319
17.168
15.987
14.783
13.563
12.332
11.094
9.852
8.61
7.368
6.128
4.887
3.643
2.395
1.137
-0.135
-1.427
-2.746
-4.098
-5.49
-6.932
-8.431
-9.996
-11.635
-13.356
-15.168
-17.078
-19.093
-21.219
-23.459
-25.818
-28.297
-30.897
-33.615
-36.451
-39.401
-42.46
-45.622
-48.88
-52.224
-55.646
-59.132
-62.669
-66.235
-69.814
-73.384
-76.923
-80.41
-83.821
-87.133
-90.326
-93.382
-96.283
-99.007
-101.537
-103.848
-105.918
-107.731
-109.266
-110.506
-111.438
-112.051
-112.337
-112.3
-111.938
-111.248
-110.221
-108.837
-107.077
-104.934
-102.404
-99.492
-96.213
-92.586
-88.642
-84.437
-80.022
-75.439
-70.739
-65.943
-61.085
-56.216
-51.382
-46.649
-42.089
-37.752
-33.661
-29.824
-26.215
-22.784
-19.482
-16.23
-12.927
-9.468
-5.725
-1.587
3.051
8.272
14.193
21.036
28.901
37.69
47.094
56.482
65.178
72.701
78.471
81.717
82.147
79.975
75.959
71.912
69.633
70.299
75.277
85.771
101.748
122.103
144.564
164.932
178.612
181.557
169.157
136.841
83.477
11.255
-77.139
-176.306
-284.643
-405.27
-532.465
-655.311
-754.565
-803.856
-793.126
-724.223
-609.514
-468.819
-306.781
-125.834
67.041
259.123
419.998
525.078
567.647
556.451
515.666
465.131
410.779
349.849
279.566
202.308
128.029
69.457
29.725
7.724
-1.277
-4.706
-2.255
5.896
17.989
33.504
47.566
56.685
60.777
59.662
54.62
47.569
39.263
30.816
23.926
19.299
17.099
17.279
19.196
22.207
25.954
29.892
33.346
35.941
37.416
37.65
36.752
34.788
31.811
27.955
23.383
18.281
12.824
7.132
1.287
-4.631
-10.563
-16.453
-22.252
-27.937
-33.465
-38.8
-43.918
-48.793
-53.423
-57.824
-62.019
-66.063
-70.012
-73.908
-77.788
-81.677
-85.586
-89.526
-93.499
-97.493
-101.502
-105.523
-109.549
-113.582
-117.62
-121.657
-125.685
-129.69
-133.657
-137.573
-141.426
-145.204
-148.898
-152.498
-155.996
-159.388
-162.67
-165.835
-168.874
-171.777
-174.534
-177.132
-179.562
-181.811
-183.867
-185.719
-187.359
-188.776
-189.965
-190.915
-191.622
-192.077
-192.277
-192.215
-191.888
-191.293
-190.426
-189.288
-187.878
-186.197
-184.248
-182.034
-179.56
-176.832
-173.856
-170.641
-167.196
-163.53
-159.654
-155.58
-151.32
-146.888
-142.299
-137.568
-132.711
-127.745
-122.686
-117.552
-112.36
-107.126
-101.867
-96.6
-91.34
-86.104
-80.906
-75.763
-70.688
-65.695
-60.798
-56.007
-51.335
-46.791
-42.384
-38.124
-34.016
-30.068
-26.284
-22.669
-19.226
-15.958
-12.865
-9.947
-7.205
-4.636
-2.237
-0.004
2.065
3.977
5.736
7.35
8.824
10.165
11.382
12.481
13.471
14.36
15.155
15.865
16.498
17.062
17.565
18.012
18.412
18.771
19.094
19.388
19.655
19.901
20.129
20.34
20.539
20.724
20.898
21.059
21.208
21.345
21.467
21.573
21.66
21.728
21.772
21.79
21.778
21.734
21.652
21.53
21.365
21.153
20.891
20.578
20.21
19.785
19.301
18.758
18.155
17.491
16.766
15.982
15.14
14.246
13.303
12.317
11.295
10.245
9.175
8.095
7.013
5.939
4.883
3.854
2.864
1.925
1.05
0.253
-0.451
-1.046
-1.516
-1.847
-2.024
-2.036
-1.873
-1.527
-0.995
-0.27
0.652
1.774
3.1
4.632
6.371
8.315
10.457
12.789
15.298
17.971
20.787
23.73
26.787
29.953
33.236
36.641
40.16
43.783
47.5
51.294
55.147
59.028
62.886
66.665
70.314
73.788
77.066
80.118
82.905
85.372
87.436
89.043
90.19
90.871
91.085
90.827
90.067
88.85
87.324
85.651
84.01
82.559
81.373
80.598
80.481
81.176
82.744
84.997
87.398
89.445
90.805
91.067
89.778
86.683
81.709
75.471
69.465
65.21
64.024
67.111
75.35
89.066
107.848
129.834
151.612
169.343
178.833
175.804
156.623
117.937
58.802
-17.798
-107.688
-205.6
-308.235
-417.013
-529.832
-638.897
-729.982
-780.596
-774.126
-706.522
-583.928
-423.672
-241.817
-47.404
150.418
341.982
512.22
642.259
719.65
741.107
714.609
653.773
573.457
488.492
407.48
337.178
279.041
227.261
179.082
132.088
87.67
52.835
30.624
21.568
23.629
31.241
40.332
48.224
52.698
53.236
49.954
43.088
33.547
22.458
11.001
0.584
-7.462
-12.451
-14.368
-13.581
-10.715
-6.451
-1.371
3.852
8.45
11.936
14.089
14.846
14.309
12.567
9.644
5.629
0.677
-5.081
-11.485
-18.374
-25.632
-33.096
-40.615
-48.07
-55.331
-62.304
-68.94
-75.204
-81.08
-86.574
-91.685
-96.421
-100.813
-104.894
-108.711
-112.325
-115.791
-119.182
-122.554
-125.95
-129.406
-132.944
-136.571
-140.294
-144.106
-147.996
-151.956
-155.982
-160.065
-164.202
-168.387
-172.608
-176.853
-181.109
-185.362
-189.599
-193.814
-197.996
-202.141
-206.24
-210.289
-214.285
-218.221
-222.087
-225.874
-229.566
-233.151
-236.614
-239.942
-243.12
-246.132
-248.965
-251.605
-254.041
-256.259
-258.247
-259.993
-261.486
-262.714
-263.667
-264.336
-264.713
-264.791
-264.563
-264.024
-263.17
-261.997
-260.505
-258.691
-256.555
-254.098
-251.322
-248.231
-244.829
-241.122
-237.118
-232.826
-228.256
-223.419
-218.327
-212.994
-207.435
-201.663
-195.695
-189.547
-183.236
-176.78
-170.196
-163.503
-156.719
-149.863
-142.952
-136.006
-129.041
-122.075
-115.126
-108.209
-101.342
-94.539
-87.816
-81.188
-74.669
-68.271
-62.008
-55.891
-49.929
-44.132
-38.51
-33.068
-27.813
-22.752
-17.89
-13.229
-8.774
-4.527
-0.488
3.341
6.962
10.375
13.583
16.588
19.394
22.003
24.418
26.643
28.681
30.536
32.211
33.709
35.034
36.189
37.177
38.001
38.664
39.169
39.517
39.711
39.752
39.642
39.381
38.97
38.411
37.703
36.848
35.846
34.699
33.407
31.971
30.392
28.672
26.81
24.808
22.667
20.389
17.977
15.435
12.767
9.976
7.07
4.055
0.938
-2.271
-5.562
-8.926
-12.349
-15.821
-19.327
-22.852
-26.38
-29.895
-33.38
-36.817
-40.186
-43.464
-46.631
-49.666
-52.546
-55.25
-57.755
-60.039
-62.085
-63.876
-65.397
-66.634
-67.569
-68.189
-68.478
-68.426
-68.022
-67.254
-66.115
-64.602
-62.718
-60.47
-57.868
-54.918
-51.625
-47.986
-44.004
-39.684
-35.036
-30.072
-24.815
-19.297
-13.56
-7.664
-1.661
4.402
10.477
16.529
22.513
28.383
34.092
39.592
44.83
49.757
54.328
58.518
62.353
65.883
69.173
72.309
75.342
78.334
81.39
84.622
88.129
91.993
96.241
100.93
106.253
112.317
119.013
126.013
132.719
138.561
143.175
146.074
146.551
144.233
139.272
132.464
125.358
119.203
115.026
114.316
118.317
127.625
140.556
152.557
160.413
162.333
158.436
151.773
137.361
106.019
52.5
-30.574
-138.68
-258.954
-387.846
-517.126
-637.306
-740.863
-805.771
-810.731
-749.436
-622.811
-446.014
-243.554
-31.04
174.954
357.168
503.955
599.587
638.284
624.36
563.938
474.902
372.34
270.084
187.795
131.89
103.678
99.287
102.507
105.013
104.893
102.968
106.907
119.236
136.844
155.56
170.082
178.213
180.617
178.375
172.982
165.578
157.218
149.535
143.595
139.772
138.114
138.201
139.588
141.952
144.809
147.549
149.814
151.464
152.491
153.062
153.287
153.211
152.921
152.509
152.034
151.536
151.041
150.552
150.106
149.765
149.572
149.558
149.737
150.108
150.665
151.401
152.301
153.343
154.507
155.784
157.16
158.625
160.16
161.739
163.333
164.912
166.445
167.905
169.265
170.504
171.602
172.541
173.309
173.892
174.277
174.447
174.388
174.085
173.528
172.706
171.613
170.244
168.595
166.668
164.466
161.994
159.259
156.268
153.032
149.561
145.869
141.972
137.887
133.632
129.228
124.696
120.062
115.35
110.587
105.799
101.014
96.263
91.574
86.976
82.499
78.172
74.025
70.085
66.379
62.934
59.776
56.927
54.409
52.242
50.445
49.034
48.021
47.417
47.233
47.474
48.145
49.248
50.784
52.749
55.14
57.95
61.171
64.791
68.798
73.178
77.912
82.983
88.371
94.053
100.007
106.208
112.632
119.251
126.039
132.969
140.012
147.14
154.327
161.543
168.762
175.957
183.103
190.173
197.144
203.993
210.699
217.241
223.6
229.758
235.699
241.406
246.867
252.069
257
261.652
266.015
270.085
273.855
277.322
280.485
283.341
285.891
288.137
290.082
291.728
293.081
294.147
294.93
295.439
295.682
295.666
295.4
294.891
294.148
293.18
291.994
290.598
289
287.207
285.227
283.069
280.739
278.245
275.595
272.797
269.856
266.78
263.575
260.247
256.801
253.243
249.578
245.812
241.951
238
233.966
229.854
225.668
221.416
217.104
212.735
208.317
203.854
199.353
194.824
190.275
185.716
181.156
176.606
172.079
167.586
163.139
158.748
154.424
150.178
146.021
141.964
138.021
134.203
130.524
127
123.647
120.478
117.507
114.745
112.199
109.877
107.783
105.92
104.288
102.888
101.717
100.777
100.065
99.577
99.304
99.233
99.35
99.64
100.087
100.668
101.366
102.167
103.065
104.068
105.177
106.382
107.674
109.044
110.473
111.945
113.43
114.869
116.206
117.388
118.364
119.104
119.57
119.708
119.445
118.713
117.474
115.718
113.441
110.612
107.187
103.16
98.601
93.671
88.541
83.372
78.291
73.444
69.085
65.409
62.478
60.127
57.88
55.238
51.875
47.474
41.59
33.997
24.855
14.896
5.719
-0.957
-3.91
-2.104
5.434
19.061
38.012
60.14
81.65
98.209
105.783
100.395
78.165
35.506
-27.831
-107.617
-198.362
-293.757
-391.53
-496.365
-608.473
-719.791
-814.89
-868.323
-859.549
-784.972
-652.171
-478.073
-284.126
-85.785
103.667
265.999
384.412
447.723
450.589
402.571
325.18
238.484
162.581
109.617
77.157
58.996
44.2
23.588
-2.133
-28.735
-49.289
-58.789
-58.193
-51.003
-41.822
-34.284
-29.899
-28.925
-31.122
-36.203
-43.659
-52.793
-62.713
-72.239
-80.478
-87.082
-91.953
-95.253
-97.354
-98.61
-99.435
-100.368
-101.743
-103.688
-106.251
-109.351
-112.892
-116.828
-121.079
-125.543
-130.16
-134.896
-139.712
-144.598
-149.513
-154.387
-159.176
-163.85
-168.393
-172.81
-177.108
-181.294
-185.385
-189.407
-193.38
-197.317
-201.224
-205.106
-208.97
-212.834
-216.716
-220.632
-224.596
-228.62
-232.712
-236.874
-241.108
-245.407
-249.763
-254.164
-258.602
-263.068
-267.554
-272.052
-276.55
-281.037
-285.498
-289.92
-294.288
-298.583
-302.786
-306.877
-310.836
-314.646
-318.287
-321.74
-324.985
-328.004
-330.778
-333.291
-335.523
-337.459
-339.081
-340.373
-341.323
-341.915
-342.139
-341.984
-341.441
-340.504
-339.165
-337.424
-335.277
-332.724
-329.768
-326.412
-322.662
-318.523
-314.006
-309.12
-303.877
-298.29
-292.374
-286.146
-279.624
-272.825
-265.77
-258.48
-250.977
-243.283
-235.421
-227.415
-219.29
-211.07
-202.782
-194.449
-186.098
-177.753
-169.44
-161.182
-153.005
-144.931
-136.981
-129.178
-121.54
-114.088
-106.838
-99.808
-93.013
-86.465
-80.179
-74.166
-68.436
-62.997
-57.858
-53.024
-48.502
-44.293
-40.402
-36.828
-33.571
-30.628
-27.998
-25.674
-23.65
-21.92
-20.473
-19.301
-18.392
-17.733
-17.312
-17.116
-17.129
-17.336
-17.722
-18.271
-18.968
-19.796
-20.74
-21.785
-22.914
-24.114
-25.369
-26.667
-27.992
-29.333
-30.676
-32.009
-33.321
-34.6
-35.838
-37.023
-38.148
-39.206
-40.191
-41.096
-41.919
-42.656
-43.305
-43.865
-44.335
-44.718
-45.012
-45.221
-45.347
-45.395
-45.368
-45.271
-45.107
-44.883
-44.604
-44.273
-43.896
-43.476
-43.016
-42.517
-41.983
-41.415
-40.812
-40.177
-39.507
-38.804
-38.067
-37.293
-36.481
-35.628
-34.726
-33.77
-32.75
-31.657
-30.48
-29.208
-27.831
-26.338
-24.722
-22.977
-21.098
-19.082
-16.921
-14.612
-12.146
-9.519
-6.724
-3.76
-0.628
2.669
6.127
9.735
13.478
17.341
21.315
25.397
29.6
33.932
38.391
42.969
47.652
52.423
57.263
62.14
67.006
71.809
76.495
81.028
85.385
89.544
93.478
97.136
100.439
103.326
105.773
107.784
109.37
110.539
111.287
111.623
111.64
111.47
111.254
111.128
111.191
111.503
112.18
113.476
115.546
118.343
121.568
124.586
126.766
127.733
127.06
124.153
118.744
111.024
101.864
93.19
86.972
84.583
87.354
96.337
111.511
131.842
154.886
176.257
191.311
195.744
184.916
154.843
103.152
30.674
-58.282
-157.828
-262.235
-369.906
-480.747
-588.72
-681.685
-740.135
-743.826
-686.784
-578.689
-439.406
-290.237
-139.94
16.071
181.63
352.344
510.247
627.413
685.529
680.393
622.685
534.051
433.906
337.988
255.247
189.778
141.608
105.45
78
55.411
36.475
25.539
23.782
30.589
43.871
57.693
67.771
72.778
72.392
67.647
59.864
49.861
38.583
27.562
18.399
11.855
8.069
6.727
7.153
8.861
11.523
14.597
17.448
19.694
21.091
21.54
21.15
19.972
17.996
15.28
11.919
8.024
3.767
-0.652
-5.099
-9.481
-13.729
-17.819
-21.711
-25.362
-28.748
-31.853
-34.675
-37.215
-39.461
-41.397
-43.029
-44.391
-45.551
-46.607
-47.637
-48.693
-49.82
-51.046
-52.4
-53.911
-55.588
-57.428
-59.43
-61.6
-63.95
-66.498
-69.254
-72.218
-75.385
-78.742
-82.281
-85.993
-89.866
-93.888
-98.046
-102.328
-106.726
-111.235
-115.845
-120.542
-125.311
-130.134
-134.99
-139.859
-144.72
-149.548
-154.318
-159.007
-163.592
-168.049
-172.356
-176.49
-180.429
-184.151
-187.636
-190.863
-193.814
-196.469
-198.811
-200.827
-202.502
-203.824
-204.784
-205.374
-205.588
-205.424
-204.878
-203.953
-202.647
-200.965
-198.91
-196.49
-193.711
-190.583
-187.118
-183.328
-179.227
-174.832
-170.159
-165.225
-160.049
-154.651
-149.05
-143.267
-137.322
-131.237
-125.033
-118.732
-112.357
-105.929
-99.47
-93.002
-86.544
-80.118
-73.743
-67.438
-61.219
-55.103
-49.106
-43.244
-37.529
-31.974
-26.592
-21.394
-16.39
-11.59
-7.002
-2.634
1.507
5.415
9.085
12.513
15.696
18.63
21.314
23.745
25.924
27.85
29.524
30.947
32.12
33.047
33.73
34.172
34.377
34.349
34.091
33.607
32.899
31.973
30.829
29.473
27.907
26.134
24.159
21.986
19.62
17.065
14.327
11.412
8.325
5.073
1.662
-1.9
-5.608
-9.453
-13.428
-17.523
-21.727
-26.032
-30.427
-34.901
-39.444
-44.043
-48.686
-53.363
-58.061
-62.768
-67.468
-72.147
-76.788
-81.373
-85.885
-90.305
-94.615
-98.795
-102.826
-106.691
-110.373
-113.854
-117.118
-120.147
-122.923
-125.43
-127.65
-129.564
-131.152
-132.4
-133.292
-133.816
-133.966
-133.733
-133.115
-132.11
-130.72
-128.946
-126.791
-124.256
-121.344
-118.066
-114.434
-110.465
-106.178
-101.595
-96.738
-91.638
-86.321
-80.804
-75.097
-69.198
-63.111
-56.854
-50.444
-43.901
-37.25
-30.519
-23.749
-17.008
-10.357
-3.852
2.457
8.542
14.366
19.868
24.967
29.582
33.665
37.201
40.18
42.569
44.325
45.44
45.98
46.105
45.989
45.772
45.539
45.396
45.559
46.218
47.465
49.165
50.827
51.952
52.261
51.454
49.095
44.951
39.091
32.159
25.885
22.017
21.553
25.731
35.929
52.47
74.935
100.442
122.565
136.986
141.562
135.905
122.987
100.229
61.236
0.236
-89.369
-205.31
-337.551
-474.372
-600.276
-699.821
-762.251
-779.57
-745.821
-664.128
-539.806
-375.307
-182.636
23.367
224.106
388.987
497.268
545.268
538.684
497.822
442.934
379.368
311.62
243.459
177.183
124.276
90.107
71.173
64.754
62.796
61.924
66.136
75.795
91.306
110.96
128.683
141.525
149.021
151.008
148.957
144.346
137.702
130.191
123.492
118.435
115.362
114.353
114.934
116.62
119.162
122.108
124.872
127.174
128.88
129.959
130.575
130.831
130.758
130.436
129.94
129.307
128.579
127.786
126.932
126.061
125.21
124.398
123.643
122.946
122.294
121.677
121.074
120.46
119.814
119.121
118.372
117.56
116.67
115.684
114.576
113.319
111.89
110.27
108.438
106.378
104.08
101.537
98.75
95.72
92.45
88.938
85.185
81.193
76.965
72.51
67.834
62.947
57.863
52.597
47.169
41.597
35.904
30.11
24.238
18.312
12.355
6.393
0.452
-5.441
-11.259
-16.974
-22.558
-27.98
-33.212
-38.227
-42.997
-47.495
-51.697
-55.577
-59.114
-62.288
-65.081
-67.475
-69.456
-71.012
-72.131
-72.807
-73.032
-72.805
-72.123
-70.99
-69.408
-67.386
-64.931
-62.056
-58.772
-55.097
-51.046
-46.639
-41.897
-36.842
-31.498
-25.892
-20.051
-14.003
-7.779
-1.408
5.079
11.65
18.274
24.921
31.561
38.162
44.696
51.135
57.451
63.618
69.611
75.405
80.981
86.316
91.393
96.195
100.707
104.917
108.811
112.383
115.624
118.528
121.092
123.315
125.196
126.739
127.948
128.829
129.391
129.644
129.599
129.269
128.669
127.814
126.72
125.406
123.888
122.187
120.32
118.307
116.168
113.922
111.588
109.186
106.734
104.249
101.749
99.249
96.767
94.316
91.911
89.565
87.29
85.096
82.995
80.993
79.098
77.315
75.648
74.099
72.67
71.36
70.169
69.094
68.132
67.278
66.527
65.874
65.311
64.828
64.42
64.075
63.787
63.544
63.337
63.157
62.995
62.843
62.695
62.541
62.376
62.192
61.983
61.746
61.477
61.172
60.827
60.444
60.023
59.57
59.092
58.595
58.086
57.576
57.075
56.594
56.144
55.729
55.358
55.04
54.786
54.609
54.523
54.539
54.671
54.934
55.341
55.902
56.623
57.504
58.546
59.754
61.135
62.709
64.494
66.496
68.728
71.196
73.891
76.802
79.902
83.145
86.493
89.912
93.369
96.842
100.307
103.73
107.083
110.329
113.422
116.327
119.013
121.47
123.742
125.892
127.997
130.158
132.436
134.906
137.687
140.882
144.586
148.885
153.805
159.418
165.947
173.486
181.887
190.779
199.494
207.356
213.914
218.618
220.713
219.807
216.096
210.517
204.747
200.415
198.931
201.499
209.107
222.29
238.807
255.075
268.724
275.577
274.485
265.107
239.043
192.42
124.144
32.318
-72.416
-183.565
-303.059
-425.651
-545.533
-648.327
-706.547
-700.707
-626.257
-490.815
-313.68
-116.226
86.704
280.33
445.331
565.128
629.562
639.147
610.06
562.972
511.086
460.941
410.838
355.645
296.864
239.169
188.2
150.262
126.891
116.348
116.397
123.564
134.535
146.921
158.032
165.583
168.691
167.16
161.394
152.61
142.103
131.073
120.965
112.772
106.794
103.083
101.382
101.185
102.021
103.374
104.597
105.307
105.387
104.784
103.559
101.741
99.286
96.243
92.76
88.982
85.017
80.94
76.78
72.6
68.513
64.601
60.91
57.439
54.161
51.065
48.167
45.496
43.072
40.892
38.929
37.141
35.498
33.972
32.528
31.125
29.708
28.235
26.681
25.042
23.316
21.492
19.556
17.49
15.281
12.919
10.397
7.705
4.835
1.781
-1.462
-4.891
-8.503
-12.293
-16.26
-20.404
-24.721
-29.205
-33.851
-38.647
-43.585
-48.654
-53.839
-59.123
-64.486
-69.911
-75.376
-80.862
-86.345
-91.804
-97.216
-102.557
-107.804
-112.934
-117.922
-122.745
-127.381
-131.806
-135.999
-139.938
-143.603
-146.976
-150.038
-152.775
-155.172
-157.215
-158.896
-160.203
-161.13
-161.672
-161.824
-161.584
-160.953
-159.932
-158.524
-156.737
-154.579
-152.058
-149.187
-145.979
-142.447
-138.608
-134.479
-130.078
-125.423
-120.536
-115.436
-110.147
-104.689
-99.085
-93.358
-87.529
-81.623
-75.659
-69.661
-63.65
-57.645
-51.667
-45.736
-39.87
-34.088
-28.406
-22.84
-17.407
-12.119
-6.989
-2.03
2.749
7.338
11.729
15.915
19.891
23.653
27.195
30.517
33.617
36.495
39.151
41.586
43.804
45.806
47.597
49.179
50.556
51.733
52.713
53.5
54.098
54.512
54.745
54.802
54.687
54.403
53.956
53.349
52.587
51.674
50.612
49.407
48.062
46.581
44.965
43.219
41.345
39.347
37.228
34.991
32.638
30.172
27.597
24.915
22.13
19.246
16.265
13.193
10.034
6.794
3.481
0.101
-3.338
-6.825
-10.35
-13.904
-17.474
-21.048
-24.616
-28.163
-31.676
-35.143
-38.549
-41.882
-45.124
-48.26
-51.27
-54.136
-56.841
-59.366
-61.693
-63.804
-65.685
-67.324
-68.713
-69.842
-70.702
-71.284
-71.576
-71.573
-71.268
-70.657
-69.737
-68.51
-66.98
-65.158
-63.064
-60.709
-58.103
-55.247
-52.131
-48.746
-45.1
-41.201
-37.06
-32.7
-28.147
-23.445
-18.66
-13.851
-9.067
-4.353
0.268
4.763
9.078
13.159
16.933
20.325
23.293
25.828
27.917
29.588
30.882
31.843
32.594
33.288
34.068
35.065
36.382
38.095
40.339
43.365
47.357
52.32
58.032
64.019
69.762
74.838
78.768
80.827
80.432
77.577
72.963
67.988
64.276
63.339
66.375
74.526
88.78
107.205
126.494
144.477
157.001
163.059
162.303
146.252
108.577
44.935
-46.616
-155.412
-270.268
-386.771
-503.528
-620.043
-730.28
-815.092
-848.564
-818.491
-726.311
-588.121
-430.255
-263.17
-88.938
89.182
266.836
422.508
530.103
579.061
571.28
523.202
459.661
392.788
325.479
261
197.408
139.448
97.174
70.417
58.777
59.067
63.491
71.801
83.519
96.427
109.938
120.326
124.885
123.71
117.111
106.591
93.944
80.302
67.113
55.644
46.409
39.574
34.883
31.78
29.755
28.244
26.608
24.442
21.572
17.959
13.72
8.966
3.757
-1.795
-7.575
-13.518
-19.576
-25.732
-31.981
-38.275
-44.541
-50.701
-56.691
-62.483
-68.063
-73.421
-78.557
-83.468
-88.162
-92.66
-96.974
-101.109
-105.07
-108.86
-112.49
-115.982
-119.359
-122.644
-125.86
-129.022
-132.142
-135.235
-138.306
-141.361
-144.406
-147.441
-150.472
-153.505
-156.545
-159.601
-162.675
-165.771
-168.892
-172.039
-175.212
-178.409
-181.627
-184.863
-188.114
-191.375
-194.641
-197.907
-201.166
-204.412
-207.635
-210.827
-213.978
-217.079
-220.117
-223.081
-225.958
-228.737
-231.404
-233.947
-236.352
-238.608
-240.702
-242.622
-244.357
-245.896
-247.229
-248.346
-249.237
-249.895
-250.312
-250.481
-250.397
-250.053
-249.448
-248.577
-247.441
-246.037
-244.367
-242.432
-240.234
-237.778
-235.067
-232.109
-228.909
-225.477
-221.821
-217.953
-213.883
-209.624
-205.19
-200.594
-195.851
-190.975
-185.984
-180.892
-175.716
-170.472
-165.177
-159.847
-154.499
-149.149
-143.813
-138.507
-133.246
-128.046
-122.921
-117.884
-112.95
-108.131
-103.439
-98.885
-94.478
-90.229
-86.144
-82.23
-78.494
-74.939
-71.568
-68.384
-65.386
-62.575
-59.949
-57.505
-55.239
-53.146
-51.221
-49.456
-47.846
-46.381
-45.055
-43.857
-42.779
-41.812
-40.946
-40.173
-39.483
-38.867
-38.316
-37.82
-37.372
-36.961
-36.58
-36.22
-35.876
-35.539
-35.203
-34.865
-34.518
-34.16
-33.789
-33.402
-32.999
-32.579
-32.142
-31.69
-31.225
-30.749
-30.265
-29.777
-29.289
-28.805
-28.331
-27.87
-27.427
-27.006
-26.61
-26.242
-25.904
-25.598
-25.326
-25.088
-24.884
-24.716
-24.583
-24.486
-24.423
-24.392
-24.391
-24.414
-24.455
-24.506
-24.555
-24.594
-24.61
-24.594
-24.534
-24.424
-24.256
-24.027
-23.73
-23.359
-22.906
-22.364
-21.727
-20.989
-20.147
-19.199
-18.147
-16.996
-15.752
-14.429
-13.03
-11.555
-9.996
-8.329
-6.536
-4.615
-2.558
-0.368
1.949
4.383
6.907
9.474
12.044
14.576
17.041
19.424
21.688
23.785
25.659
27.223
28.414
29.22
29.625
29.627
29.24
28.454
27.322
25.992
24.606
23.317
22.276
21.568
21.36
21.936
23.487
26.072
29.509
33.242
36.681
39.392
40.862
40.475
37.863
33.085
26.968
21.356
18.315
19.488
26.242
39.753
60.429
87.335
117.933
147.786
171.628
184.428
181.432
158.266
111.242
40.189
-50.641
-155.311
-266.351
-379.127
-495.238
-612.904
-723.695
-814.792
-864.829
-854.701
-780.008
-643.7
-456.408
-238.753
-9.444
210.758
393.978
520.117
579.818
572.968
516.315
433.776
344.108
264.886
205.05
162.285
132.697
107.475
79.787
50.868
24.132
6.04
0.896
7.427
22.121
39.909
56.474
69.461
77.918
81.892
81.702
77.88
71.25
62.745
53.666
45.504
39.072
34.643
32.203
31.369
31.737
33.015
34.748
36.384
37.64
38.399
38.655
38.563
38.231
37.686
36.996
36.24
35.455
34.69
33.97
33.292
32.69
32.197
31.824
31.59
31.495
31.524
31.668
31.907
32.213
32.566
32.957
33.374
33.813
34.259
34.691
35.088
35.429
35.696
35.873
35.943
35.89
35.708
35.393
34.944
34.364
33.653
32.809
31.83
30.716
29.468
28.09
26.584
24.955
23.208
21.351
19.394
17.346
15.218
13.02
10.76
8.449
6.1
3.722
1.327
-1.074
-3.468
-5.844
-8.189
-10.489
-12.733
-14.909
-17.003
-19.003
-20.897
-22.675
-24.323
-25.834
-27.195
-28.399
-29.436
-30.298
-30.978
-31.469
-31.764
-31.858
-31.746
-31.424
-30.888
-30.137
-29.168
-27.98
-26.574
-24.949
-23.107
-21.05
-18.781
-16.302
-13.618
-10.733
-7.652
-4.383
-0.933
2.692
6.481
10.426
14.515
18.739
23.084
27.541
32.094
36.733
41.442
46.209
51.019
55.857
60.708
65.557
70.387
75.184
79.931
84.613
89.215
93.721
98.117
102.387
106.52
110.5
114.317
117.957
121.409
124.663
127.71
130.54
133.146
135.523
137.664
139.567
141.229
142.649
143.827
144.764
145.464
145.929
146.164
146.176
145.971
145.557
144.944
144.141
143.161
142.016
140.719
139.284
137.724
136.055
134.292
132.448
130.538
128.577
126.578
124.555
122.523
120.495
118.483
116.501
114.559
112.67
110.842
109.084
107.403
105.806
104.299
102.884
101.566
100.346
99.228
98.213
97.3
96.49
95.781
95.17
94.655
94.23
93.89
93.629
93.441
93.319
93.258
93.252
93.299
93.396
93.542
93.734
93.972
94.255
94.58
94.943
95.341
95.766
96.215
96.686
97.177
97.687
98.215
98.759
99.321
99.9
100.492
101.094
101.699
102.298
102.891
103.481
104.077
104.701
105.374
106.107
106.915
107.809
108.793
109.869
111.023
112.222
113.442
114.655
115.834
116.969
118.032
118.994
119.828
120.48
120.903
121.088
121.029
120.725
120.202
119.466
118.559
117.612
116.764
116.173
116.002
116.364
117.406
119.332
122.265
126.249
131.157
136.609
142.17
147.45
152.029
155.495
157.527
158
157.366
156.648
157.082
160.001
166.339
176.588
191.426
211.04
233.847
257.609
278.135
288.677
285.925
268.646
236.694
196.133
149.01
90.368
16.065
-83.476
-212.798
-360.092
-507.522
-628.955
-697.233
-701.643
-643.708
-535.004
-394.435
-232.353
-51.918
140.803
336.007
512.348
642.369
712.93
726.267
697.547
650.898
598.009
539.533
476.93
407.138
335.054
271.161
215.891
171.011
135.911
105.499
82.129
66.782
57.818
55.936
58.327
61.558
64.352
64.922
62.645
58.238
52.102
44.517
36.065
27.4
19.303
12.814
8.416
5.931
5.077
5.531
6.973
9.162
11.685
13.894
15.389
16.048
15.872
15.008
13.552
11.533
9.071
6.39
3.717
1.23
-0.969
-2.871
-4.474
-5.749
-6.656
-7.154
-7.236
-6.926
-6.253
-5.243
-3.914
-2.299
-0.458
1.515
3.511
5.441
7.238
8.854
10.25
11.385
12.221
12.73
12.903
12.732
12.207
11.315
10.037
8.364
6.298
3.847
1.025
-2.157
-5.689
-9.556
-13.743
-18.23
-23
-28.036
-33.322
-38.838
-44.558
-50.455
-56.498
-62.654
-68.891
-75.175
-81.466
-87.73
-93.928
-100.025
-105.986
-111.775
-117.357
-122.699
-127.769
-132.535
-136.969
-141.043
-144.732
-148.011
-150.86
-153.26
-155.197
-156.658
-157.631
-158.11
-158.092
-157.575
-156.562
-155.055
-153.063
-150.596
-147.665
-144.287
-140.479
-136.262
-131.658
-126.693
-121.394
-115.791
-109.913
-103.792
-97.462
-90.956
-84.308
-77.553
-70.726
-63.861
-56.994
-50.157
-43.386
-36.711
-30.166
-23.779
-17.58
-11.595
-5.849
-0.367
4.832
9.727
14.303
18.545
22.44
25.979
29.152
31.955
34.385
36.44
38.122
39.435
40.384
40.977
41.224
41.137
40.73
40.016
39.011
37.734
36.202
34.434
32.449
30.267
27.91
25.396
22.747
19.981
17.119
14.178
11.176
8.129
5.054
1.964
-1.128
-4.208
-7.267
-10.294
-13.281
-16.218
-19.102
-21.925
-24.685
-27.379
-30.005
-32.564
-35.058
-37.488
-39.856
-42.167
-44.425
-46.634
-48.799
-50.926
-53.021
-55.09
-57.137
-59.17
-61.193
-63.211
-65.228
-67.246
-69.266
-71.288
-73.313
-75.336
-77.356
-79.369
-81.369
-83.352
-85.313
-87.244
-89.139
-90.988
-92.783
-94.513
-96.164
-97.723
-99.174
-100.503
-101.693
-102.731
-103.601
-104.292
-104.794
-105.098
-105.198
-105.083
-104.746
-104.179
-103.376
-102.333
-101.047
-99.518
-97.75
-95.75
-93.528
-91.099
-88.471
-85.65
-82.636
-79.414
-75.978
-72.33
-68.474
-64.418
-60.177
-55.77
-51.236
-46.629
-41.999
-37.397
-32.864
-28.431
-24.145
-20.063
-16.242
-12.772
-9.72
-7.107
-4.96
-3.286
-2.07
-1.321
-0.993
-0.945
-1.036
-1.121
-1.078
-0.851
-0.318
0.763
2.584
5.212
8.479
11.942
15.202
18.023
20.059
20.768
19.654
16.586
12.21
7.866
4.801
4.035
6.629
13.81
26.692
43.86
61.073
74.104
79.966
80.272
79.273
75.586
61.106
23.221
-48.444
-154.106
-282.457
-417.079
-547.82
-668.237
-772.627
-854.734
-897.567
-884.205
-810.42
-679.92
-506.728
-311.779
-111.15
79.307
238.749
350.985
407.482
408.972
371.731
316.879
257.465
200.453
145.094
85.904
23.683
-37.413
-92.481
-134.772
-161.498
-173.772
-173.683
-164.411
-148.95
-129.239
-107.225
-85.619
-66.82
-51.991
-41.36
-34.441
-30.425
-28.808
-29.144
-30.316
-31.03
-30.63
-28.909
-26.047
-22.514
-18.585
-14.459
-10.624
-7.646
-5.853
-5.394
-6.19
-7.987
-10.592
-13.831
-17.501
-21.419
-25.433
-29.435
-33.393
-37.308
-41.168
-44.952
-48.606
-52.073
-55.317
-58.31
-61.038
-63.51
-65.747
-67.794
-69.695
-71.483
-73.184
-74.816
-76.385
-77.896
-79.349
-80.734
-82.056
-83.327
-84.559
-85.766
-86.961
-88.152
-89.348
-90.555
-91.777
-93.023
-94.301
-95.624
-97.003
-98.453
-99.991
-101.634
-103.4
-105.301
-107.349
-109.55
-111.913
-114.441
-117.138
-120.002
-123.03
-126.22
-129.565
-133.058
-136.686
-140.438
-144.299
-148.25
-152.273
-156.346
-160.446
-164.55
-168.631
-172.662
-176.617
-180.468
-184.186
-187.742
-191.106
-194.251
-197.146
-199.765
-202.078
-204.059
-205.682
-206.922
-207.759
-208.17
-208.138
-207.647
-206.685
-205.24
-203.307
-200.88
-197.958
-194.543
-190.641
-186.26
-181.412
-176.112
-170.379
-164.232
-157.696
-150.796
-143.561
-136.02
-128.203
-120.144
-111.876
-103.437
-94.863
-86.191
-77.462
-68.716
-59.993
-51.335
-42.782
-34.37
-26.138
-18.124
-10.365
-2.893
4.259
11.063
17.488
23.506
29.094
34.231
38.9
43.091
46.792
49.997
52.706
54.921
56.651
57.907
58.693
59.02
58.895
58.327
57.341
55.962
54.213
52.123
49.723
47.049
44.147
41.067
37.836
34.483
31.036
27.516
23.969
20.43
16.938
13.537
10.25
7.101
4.126
1.349
-1.225
-3.59
-5.772
-7.808
-9.689
-11.419
-12.988
-14.361
-15.539
-16.501
-17.217
-17.668
-17.812
-17.619
-17.088
-16.204
-14.933
-13.25
-11.073
-8.298
-4.884
-0.77
4.06
9.564
15.725
22.488
29.766
37.468
45.469
53.659
61.978
70.378
78.784
87.114
95.214
102.881
109.969
116.321
121.835
126.486
130.229
133.059
135.023
136.19
136.67
136.561
135.887
134.625
132.8
130.467
127.767
124.907
122.04
119.313
116.844
114.702
112.977
111.728
110.958
110.631
110.693
111.104
111.89
113.133
114.84
116.955
119.368
121.913
124.499
127.084
129.59
131.91
133.91
135.472
136.577
137.302
137.673
137.612
137.078
136.1
134.965
134.227
134.226
135.013
136.485
138.502
140.97
143.769
146.261
147.113
145.232
140.146
132.023
121.47
108.872
94.57
79.641
66.267
56.913
53.473
56.622
66.105
82.109
104.419
131.503
160.76
186.714
203.414
208.217
198.064
172.25
132.59
76.36
3.101
-87.481
-198.852
-328.419
-470.527
-613.438
-736.166
-815.976
-835.04
-790.048
-690.925
-557.54
-409.275
-249.869
-78.158
104.703
292.17
459.1
576.087
629.108
613.485
540.282
436.667
322.695
218.448
145.102
105.257
96.049
108.387
122.173
128.941
128.186
122.315
120.013
123.537
129.837
135.907
137.591
133.586
125.286
114.083
101.795
90.207
80.183
72.338
67.032
64.121
63.353
64.383
66.631
69.36
72.029
74.312
76.039
77.247
77.963
78.171
77.907
77.252
76.277
75.028
73.523
71.739
69.674
67.374
64.9
62.328
59.731
57.145
54.584
52.056
49.563
47.098
44.658
42.221
39.754
37.24
34.663
32.013
29.282
26.455
23.507
20.419
17.173
13.761
10.182
6.436
2.528
-1.537
-5.748
-10.09
-14.544
-19.095
-23.729
-28.43
-33.183
-37.97
-42.77
-47.563
-52.332
-57.053
-61.707
-66.27
-70.72
-75.035
-79.196
-83.182
-86.974
-90.553
-93.901
-97.001
-99.84
-102.401
-104.674
-106.645
-108.306
-109.648
-110.664
-111.349
-111.699
-111.711
-111.384
-110.719
-109.718
-108.384
-106.722
-104.738
-102.438
-99.831
-96.927
-93.736
-90.268
-86.538
-82.557
-78.34
-73.903
-69.261
-64.43
-59.427
-54.268
-48.972
-43.555
-38.036
-32.43
-26.757
-21.032
-15.273
-9.496
-3.718
2.045
7.778
13.465
19.093
24.647
30.113
35.479
40.733
45.862
50.857
55.707
60.403
64.937
69.301
73.49
77.497
81.319
84.951
88.391
91.639
94.693
97.556
100.228
102.713
105.016
107.141
109.096
110.887
112.522
114.01
115.361
116.585
117.693
118.695
119.604
120.431
121.19
121.893
122.553
123.182
123.792
124.396
125.006
125.632
126.285
126.974
127.709
128.497
129.346
130.26
131.247
132.308
133.447
134.663
135.958
137.329
138.772
140.283
141.855
143.48
145.152
146.859
148.592
150.34
152.09
153.83
155.548
157.23
158.86
160.426
161.912
163.305
164.591
165.757
166.79
167.678
168.412
168.981
169.379
169.598
169.632
169.478
169.132
168.595
167.869
166.955
165.857
164.585
163.148
161.562
159.844
158.01
156.079
154.074
152.017
149.93
147.836
145.751
143.696
141.692
139.762
137.933
136.228
134.67
133.28
132.081
131.095
130.341
129.83
129.565
129.552
129.802
130.333
131.171
132.337
133.841
135.692
137.891
140.432
143.3
146.463
149.865
153.457
157.191
161.036
164.969
168.953
172.947
176.888
180.708
184.358
187.793
190.975
193.899
196.581
199.065
201.442
203.814
206.275
208.936
211.894
215.252
219.13
223.611
228.831
234.982
242.155
250.336
259.316
268.569
277.478
285.482
291.896
295.977
297.234
295.484
291.223
285.767
280.669
277.366
277.179
281.243
290.18
303.798
320.487
337.12
349.779
354.423
346.939
323.297
280.241
215.414
129.843
28.571
-82.756
-197.655
-312.336
-427.733
-540.434
-641.867
-717.846
-747.251
-717.222
-627.485
-487.193
-313.887
-120.469
85.231
293.032
489.462
652.189
758.454
798.465
773.141
697.711
596.221
487.383
388.864
312.267
257.933
222.953
199.097
177.696
156.861
138.625
128.065
128.105
136.93
150.064
161.247
166.909
166.639
160.915
151.247
139.193
125.862
112.86
102.128
94.7
90.9
90.661
93.374
98.336
104.881
112.146
119.206
125.485
130.648
134.462
136.88
137.849
137.305
135.29
131.881
127.133
121.107
113.885
105.572
96.329
86.37
75.897
65.071
54.018
42.847
31.665
20.57
9.633
-1.11
-11.645
-21.949
-32.008
-41.812
-51.37
-60.72
-69.909
-78.988
-88.011
-97.014
-106.019
-115.04
-124.082
-133.139
-142.203
-151.253
-160.261
-169.209
-178.082
-186.864
-195.542
-204.095
-212.501
-220.74
-228.791
-236.633
-244.25
-251.626
-258.75
-265.612
-272.203
-278.517
-284.548
-290.289
-295.732
-300.865
-305.68
-310.163
-314.305
-318.096
-321.525
-324.584
-327.265
-329.561
-331.467
-332.98
-334.095
-334.81
-335.124
-335.037
-334.551
-333.668
-332.394
-330.732
-328.691
-326.277
-323.5
-320.371
-316.901
-313.101
-308.986
-304.57
-299.867
-294.894
-289.668
-284.207
-278.53
-272.656
-266.606
-260.4
-254.058
-247.603
-241.056
-234.439
-227.773
-221.079
-214.378
-207.691
-201.037
-194.435
-187.904
-181.459
-175.117
-168.893
-162.8
-156.851
-151.056
-145.427
-139.972
-134.699
-129.616
-124.726
-120.035
-115.546
-111.26
-107.179
-103.302
-99.628
-96.156
-92.882
-89.802
-86.913
-84.208
-81.682
-79.326
-77.133
-75.094
-73.2
-71.44
-69.804
-68.283
-66.866
-65.543
-64.303
-63.136
-62.034
-60.986
-59.985
-59.022
-58.088
-57.178
-56.286
-55.406
-54.535
-53.67
-52.808
-51.948
-51.09
-50.233
-49.379
-48.528
-47.682
-46.844
-46.018
-45.208
-44.42
-43.661
-42.936
-42.256
-41.628
-41.061
-40.565
-40.148
-39.82
-39.59
-39.469
-39.465
-39.588
-39.846
-40.248
-40.8
-41.511
-42.385
-43.424
-44.629
-46
-47.534
-49.228
-51.076
-53.073
-55.208
-57.473
-59.859
-62.353
-64.941
-67.609
-70.339
-73.111
-75.905
-78.696
-81.46
-84.17
-86.8
-89.324
-91.718
-93.955
-96.013
-97.87
-99.505
-100.897
-102.027
-102.87
-103.402
-103.607
-103.468
-102.976
-102.125
-100.91
-99.332
-97.403
-95.136
-92.543
-89.627
-86.376
-82.781
-78.849
-74.59
-70.026
-65.187
-60.097
-54.797
-49.354
-43.831
-38.297
-32.803
-27.358
-21.982
-16.709
-11.588
-6.712
-2.153
2.053
5.879
9.307
12.33
14.943
17.176
19.127
20.896
22.61
24.355
26.139
27.981
29.857
31.844
34.183
36.913
39.881
42.823
45.245
46.747
47.203
46.136
42.755
36.865
28.633
18.797
8.976
0.515
-5.643
-8.069
-5.128
2.258
11.024
18.001
18.631
13.587
9.201
5.652
0.291
-15.612
-60.082
-139.788
-253.331
-393.888
-541.098
-679.157
-792.215
-861.417
-877.315
-830.932
-723.522
-567.544
-375.368
-166.315
43.288
238.819
402.382
523.331
592.608
609.351
579.86
508.331
407.869
290.775
171.075
71.278
0.885
-37.987
-49.947
-52.707
-56.383
-63.216
-71.859
-74.575
-68.224
-55.779
-42.112
-32.597
-29.326
-31.594
-37.84
-46.195
-55.613
-64.981
-72.499
-77.171
-78.672
-77.073
-73.176
-67.734
-61.173
-54.136
-47.361
-41.318
-36.368
-32.691
-30.183
-28.779
-28.452
-29.114
-30.7
-33.126
-36.243
-39.895
-43.907
-48.119
-52.432
-56.761
-61.033
-65.176
-69.104
-72.759
-76.13
-79.209
-81.986
-84.448
-86.567
-88.349
-89.845
-91.12
-92.251
-93.296
-94.283
-95.236
-96.181
-97.13
-98.098
-99.078
-100.048
-100.995
-101.917
-102.815
-103.695
-104.557
-105.385
-106.17
-106.899
-107.565
-108.163
-108.688
-109.134
-109.499
-109.786
-110.001
-110.155
-110.252
-110.296
-110.287
-110.228
-110.119
-109.96
-109.751
-109.488
-109.169
-108.794
-108.361
-107.869
-107.317
-106.701
-106.021
-105.273
-104.455
-103.564
-102.596
-101.549
-100.42
-99.204
-97.9
-96.505
-95.014
-93.425
-91.735
-89.942
-88.044
-86.036
-83.917
-81.685
-79.337
-76.873
-74.292
-71.594
-68.781
-65.854
-62.818
-59.676
-56.433
-53.097
-49.672
-46.168
-42.593
-38.956
-35.269
-31.54
-27.783
-24.008
-20.229
-16.458
-12.709
-8.994
-5.328
-1.723
1.806
5.245
8.582
11.804
14.897
17.849
20.649
23.285
25.746
28.024
30.107
31.99
33.666
35.127
36.371
37.394
38.195
38.772
39.127
39.263
39.182
38.889
38.39
37.692
36.802
35.729
34.482
33.072
31.508
29.802
27.965
26.008
23.943
21.781
19.535
17.215
14.833
12.4
9.925
7.42
4.891
2.349
-0.201
-2.751
-5.296
-7.832
-10.354
-12.861
-15.35
-17.82
-20.27
-22.702
-25.117
-27.518
-29.906
-32.287
-34.664
-37.042
-39.425
-41.819
-44.227
-46.654
-49.103
-51.578
-54.081
-56.617
-59.187
-61.791
-64.432
-67.108
-69.82
-72.565
-75.339
-78.135
-80.948
-83.768
-86.586
-89.39
-92.168
-94.907
-97.592
-100.209
-102.741
-105.172
-107.485
-109.66
-111.677
-113.515
-115.149
-116.557
-117.715
-118.6
-119.191
-119.47
-119.421
-119.03
-118.288
-117.187
-115.717
-113.871
-111.642
-109.025
-106.017
-102.618
-98.834
-94.674
-90.149
-85.276
-80.081
-74.585
-68.808
-62.758
-56.433
-49.833
-42.975
-35.875
-28.557
-21.051
-13.39
-5.621
2.187
9.965
17.647
25.178
32.525
39.651
46.511
53.038
59.132
64.721
69.784
74.312
78.301
81.748
84.622
86.96
88.906
90.608
92.206
93.814
95.462
97.257
99.445
102.211
105.631
109.593
113.689
117.5
120.705
122.828
123.234
121.478
117.455
111.601
105.042
99.223
95.742
96.415
103.105
115.697
131.732
148.496
163.691
178.541
196.147
214.857
225.915
214.38
167.113
79.403
-41.083
-179.453
-325.74
-469.822
-602.989
-714.088
-779.628
-785.975
-733.188
-630.376
-501.796
-359.468
-198.813
-19.017
179.069
376.312
535.216
632.767
662.466
637.279
588.42
536.186
488.497
445.385
398.281
345.861
292.717
243.519
204.86
179.186
165.048
160.979
164.297
172.095
182.986
195.738
208.642
220.698
230.968
238.268
242.545
244.342
243.8
241.221
237.154
231.876
225.997
220.475
215.592
211.258
207.462
203.997
200.715
197.633
194.525
190.995
186.891
182.2
176.973
171.397
165.566
159.494
153.267
147.001
140.793
134.733
128.86
123.152
117.605
112.228
107.031
102.033
97.238
92.631
88.205
83.959
79.898
76.028
72.349
68.852
65.525
62.356
59.335
56.456
53.711
51.09
48.582
46.172
43.852
41.615
39.451
37.348
35.292
33.268
31.264
29.268
27.267
25.251
23.209
21.134
19.018
16.856
14.645
12.38
10.058
7.677
5.237
2.737
0.178
-2.436
-5.102
-7.813
-10.562
-13.339
-16.136
-18.939
-21.737
-24.515
-27.259
-29.954
-32.583
-35.131
-37.581
-39.916
-42.119
-44.172
-46.061
-47.768
-49.28
-50.58
-51.657
-52.499
-53.094
-53.435
-53.513
-53.321
-52.854
-52.11
-51.085
-49.78
-48.195
-46.332
-44.195
-41.79
-39.125
-36.207
-33.047
-29.656
-26.046
-22.231
-18.226
-14.045
-9.704
-5.221
-0.611
4.107
8.917
13.802
18.743
23.725
28.73
33.744
38.751
43.738
48.69
53.597
58.448
63.231
67.941
72.568
77.106
81.552
85.901
90.15
94.298
98.345
102.291
106.138
109.887
113.541
117.105
120.581
123.975
127.291
130.534
133.709
136.819
139.871
142.867
145.813
148.71
151.561
154.369
157.134
159.856
162.534
165.165
167.746
170.272
172.737
175.134
177.454
179.688
181.826
183.856
185.768
187.548
189.184
190.663
191.971
193.095
194.02
194.734
195.223
195.476
195.479
195.223
194.697
193.894
192.805
191.425
189.75
187.775
185.499
182.923
180.047
176.876
173.416
169.675
165.663
161.393
156.881
152.144
147.203
142.077
136.791
131.368
125.836
120.221
114.551
108.856
103.167
97.516
91.941
86.476
81.154
76.011
71.082
66.4
61.996
57.897
54.126
50.705
47.658
45.006
42.77
40.969
39.618
38.73
38.319
38.391
38.949
39.986
41.489
43.444
45.842
48.677
51.95
55.657
59.785
64.32
69.241
74.518
80.115
85.978
92.036
98.221
104.475
110.74
116.977
123.137
129.165
135.002
140.58
145.835
150.711
155.168
159.193
162.791
166
168.876
171.498
173.957
176.364
178.826
181.447
184.34
187.568
191.213
195.45
200.351
205.873
211.824
217.716
222.983
227.26
230.161
231.08
229.662
225.909
220.212
213.871
208.473
204.881
203.555
205.482
211.353
220.602
232.283
242.436
244.086
234.473
213.059
180.592
143.847
103.27
51.914
-15.118
-108.385
-231.569
-373.627
-521.869
-653.194
-743.111
-778.974
-750.581
-661.473
-525.719
-354.46
-164.47
29.264
214.83
373.572
490.638
560.569
584.047
571.177
537.286
488.653
427.695
359.95
285.721
212.445
151.171
101.284
64.69
40.497
21.998
11.121
8.517
11.566
20.424
31.282
39.295
43.231
42.54
37.542
29.73
20.254
9.804
-0.442
-8.92
-14.923
-18.335
-19.235
-18.247
-15.991
-12.767
-9.086
-5.604
-2.651
-0.442
0.859
1.348
1.089
0.066
-1.609
-3.808
-6.419
-9.256
-12.167
-15.071
-17.861
-20.471
-22.877
-25.031
-26.917
-28.536
-29.857
-30.869
-31.582
-31.987
-32.102
-31.958
-31.6
-31.106
-30.561
-30.03
-29.572
-29.23
-29.033
-29.013
-29.191
-29.573
-30.171
-30.994
-32.053
-33.366
-34.947
-36.803
-38.936
-41.342
-44.01
-46.933
-50.103
-53.509
-57.139
-60.981
-65.021
-69.249
-73.652
-78.214
-82.913
-87.725
-92.622
-97.578
-102.561
-107.539
-112.478
-117.343
-122.099
-126.711
-131.145
-135.365
-139.334
-143.019
-146.383
-149.396
-152.024
-154.237
-156.006
-157.305
-158.108
-158.396
-158.148
-157.348
-155.983
-154.045
-151.526
-148.424
-144.74
-140.477
-135.643
-130.248
-124.307
-117.837
-110.859
-103.397
-95.48
-87.137
-78.404
-69.317
-59.915
-50.239
-40.332
-30.241
-20.011
-9.689
0.676
11.035
21.339
31.541
41.59
51.441
61.046
70.36
79.341
87.948
96.141
103.885
111.146
117.894
124.103
129.748
134.808
139.266
143.109
146.325
148.908
150.854
152.164
152.84
152.891
152.327
151.162
149.414
147.103
144.252
140.887
137.035
132.726
127.992
122.865
117.378
111.568
105.47
99.12
92.553
85.805
78.912
71.906
64.82
57.685
50.529
43.381
36.265
29.204
22.221
15.335
8.563
1.921
-4.578
-10.922
-17.103
-23.115
-28.953
-34.616
-40.104
-45.422
-50.573
-55.563
-60.402
-65.097
-69.659
-74.098
-78.426
-82.658
-86.806
-90.885
-94.907
-98.887
-102.838
-106.772
-110.701
-114.633
-118.577
-122.537
-126.519
-130.527
-134.563
-138.626
-142.717
-146.835
-150.978
-155.143
-159.324
-163.515
-167.706
-171.888
-176.045
-180.163
-184.224
-188.211
-192.106
-195.891
-199.55
-203.07
-206.437
-209.639
-212.665
-215.502
-218.138
-220.562
-222.761
-224.724
-226.445
-227.923
-229.156
-230.149
-230.908
-231.442
-231.759
-231.865
-231.752
-231.4
-230.794
-229.931
-228.811
-227.442
-225.836
-224.01
-221.998
-219.853
-217.631
-215.386
-213.157
-210.967
-208.844
-206.821
-204.954
-203.329
-201.999
-200.975
-200.261
-199.847
-199.725
-199.905
-200.323
-200.816
-201.207
-201.303
-200.953
-200.1
-198.614
-196.261
-192.888
-188.427
-183.062
-177.355
-171.789
-166.615
-162.223
-159.162
-157.787
-158.216
-159.914
-161.234
-160.685
-157.567
-150.757
-138.842
-121.448
-98.837
-73.709
-52.545
-39.382
-35.596
-41.347
-53.486
-74.029
-109.587
-166.688
-252.525
-367.402
-505.094
-652.676
-790.489
-897.423
-951.978
-944.822
-880.378
-771.135
-638.423
-493.022
-333.385
-159.985
26.92
212.887
369.662
479.17
533.706
541.174
521.922
487.08
439.555
375.248
290.645
194.711
101.551
27.711
-18.616
-43.09
-53.664
-60.224
-66.836
-69.23
-65.887
-56.641
-43.982
-33.956
-29.225
-29.843
-35.391
-44.258
-55.113
-67.226
-79.09
-89.021
-96.375
-101.108
-103.556
-104.405
-104.131
-103.054
-101.774
-100.999
-101.168
-102.507
-105.021
-108.522
-112.907
-118.135
-124.088
-130.605
-137.473
-144.453
-151.371
-158.123
-164.631
-170.838
-176.676
-182.065
-186.944
-191.283
-195.072
-198.314
-201.004
-203.125
-204.683
-205.71
-206.277
-206.477
-206.385
-206.052
-205.518
-204.815
-203.977
-203.038
-202.019
-200.922
-199.752
-198.52
-197.246
-195.957
-194.672
-193.405
-192.162
-190.946
-189.767
-188.637
-187.564
-186.557
-185.624
-184.774
-184.021
-183.38
-182.863
-182.475
-182.219
-182.096
-182.105
-182.243
-182.504
-182.878
-183.354
-183.921
-184.568
-185.283
-186.049
-186.852
-187.674
-188.496
-189.3
-190.066
-190.772
-191.396
-191.914
-192.305
-192.544
-192.61
-192.479
-192.128
-191.535
-190.68
-189.54
-188.097
-186.333
-184.228
-181.768
-178.939
-175.729
-172.127
-168.128
-163.725
-158.917
-153.704
-148.089
-142.076
-135.672
-128.887
-121.731
-114.218
-106.364
-98.185
-89.703
-80.937
-71.911
-62.649
-53.179
-43.529
-33.726
-23.801
-13.785
-3.709
6.393
16.49
26.549
36.538
46.423
56.174
65.759
75.149
84.314
93.228
101.865
110.202
118.216
125.887
133.198
140.133
146.679
152.824
158.558
163.874
168.768
173.237
177.279
180.896
184.09
186.867
189.233
191.196
192.767
193.957
194.779
195.247
195.376
195.184
194.686
193.902
192.85
191.548
190.016
188.271
186.334
184.221
181.953
179.546
177.019
174.387
171.669
168.879
166.032
163.143
160.225
157.29
154.35
151.414
148.494
145.598
142.735
139.912
137.137
134.417
131.757
129.164
126.642
124.195
121.826
119.54
117.339
115.225
113.202
111.274
109.443
107.714
106.09
104.575
103.174
101.889
100.725
99.683
98.768
97.982
97.328
96.812
96.437
96.21
96.14
96.233
96.497
96.94
97.568
98.387
99.401
100.611
102.017
103.619
105.419
107.412
109.599
111.974
114.532
117.27
120.182
123.256
126.484
129.853
133.348
136.962
140.689
144.526
148.48
152.555
156.752
161.078
165.534
170.112
174.804
179.581
184.395
189.205
193.96
198.604
203.096
207.377
211.387
215.074
218.38
221.255
223.666
225.587
226.991
227.869
228.247
228.198
227.867
227.435
227.095
227.015
227.374
228.416
230.289
233.057
236.656
240.767
245.058
249.348
253.419
256.992
259.954
262.201
263.969
266.218
269.848
275.412
283.254
293.543
306.544
322.668
341.486
359.662
372.324
375.607
367.575
351.686
333.642
313.806
287.558
244.462
172.442
68.925
-60.166
-203.072
-344.628
-472.657
-575.672
-641.43
-656.992
-611.692
-503.896
-338.495
-130.981
93.694
311.871
495.879
624.836
696.988
716.186
697.233
659.119
605.025
540.736
473.869
406.867
353.315
319.218
297.955
286.667
277.431
266.25
258.9
256.878
259.871
266.444
271.472
272.001
267.735
258.896
246.705
232.657
218.08
204.332
192.358
182.589
175.019
169.426
165.537
162.944
161.057
159.167
156.77
153.637
149.721
145.087
139.743
133.611
126.661
118.978
110.689
101.944
92.862
83.487
73.891
64.18
54.485
44.942
35.635
26.578
17.776
9.247
1.021
-6.841
-14.293
-21.332
-27.979
-34.265
-40.217
-45.848
-51.174
-56.232
-61.066
-65.715
-70.192
-74.493
-78.611
-82.548
-86.314
-89.926
-93.394
-96.721
-99.909
-102.965
-105.895
-108.708
-111.411
-114.002
-116.482
-118.853
-121.122
-123.295
-125.382
-127.383
-129.303
-131.142
-132.904
-134.59
-136.199
-137.728
-139.174
-140.534
-141.806
-142.986
-144.07
-145.055
-145.936
-146.709
-147.371
-147.916
-148.34
-148.64
-148.81
-148.847
-148.747
-148.508
-148.125
-147.597
-146.921
-146.096
-145.12
-143.995
-142.72
-141.296
-139.727
-138.014
-136.161
-134.173
-132.054
-129.809
-127.445
-124.967
-122.384
-119.701
-116.926
-114.067
-111.132
-108.128
-105.065
-101.949
-98.79
-95.595
-92.374
-89.134
-85.883
-82.63
-79.382
-76.147
-72.932
-69.743
-66.588
-63.473
-60.403
-57.383
-54.419
-51.515
-48.673
-45.897
-43.19
-40.553
-37.988
-35.497
-33.081
-30.74
-28.476
-26.289
-24.18
-22.148
-20.194
-18.317
-16.515
-14.789
-13.136
-11.555
-10.044
-8.601
-7.224
-5.91
-4.657
-3.462
-2.322
-1.234
-0.197
0.794
1.739
2.642
3.502
4.323
5.102
5.842
6.541
7.199
7.815
8.389
8.919
9.406
9.849
10.248
10.601
10.91
11.172
11.387
11.554
11.671
11.736
11.748
11.706
11.608
11.451
11.234
10.956
10.613
10.204
9.727
9.18
8.561
7.869
7.103
6.265
5.357
4.381
3.341
2.241
1.088
-0.112
-1.354
-2.63
-3.934
-5.258
-6.596
-7.939
-9.278
-10.605
-11.907
-13.169
-14.379
-15.523
-16.585
-17.552
-18.41
-19.147
-19.754
-20.224
-20.547
-20.715
-20.719
-20.549
-20.197
-19.66
-18.931
-18.007
-16.89
-15.582
-14.091
-12.431
-10.608
-8.622
-6.473
-4.144
-1.623
1.087
3.989
7.081
10.351
13.787
17.358
21.011
24.699
28.38
32.008
35.555
38.977
42.211
45.199
47.865
50.136
51.981
53.384
54.326
54.814
54.853
54.476
53.818
53.033
52.273
51.682
51.355
51.44
52.205
53.867
56.502
59.951
63.807
67.666
71.209
74.03
75.57
75.332
73.147
69.67
66.152
63.743
63.762
67.574
76.19
90.706
110.117
130.045
147.562
160.774
169.273
176.205
176.88
160.011
115.124
32.8
-81.835
-212.518
-344.484
-467.14
-582.022
-692.112
-791.574
-865.433
-889.762
-850.673
-749.583
-599.308
-420.654
-228.047
-32.352
154.049
315.987
434.744
499.533
510.449
476.721
413.975
334.879
250.025
171.097
107.082
64.23
42.738
34.374
30.785
26.562
21.359
20.858
28.06
42.494
61.253
78.193
89.942
96.264
97.343
94.502
89.09
81.555
72.978
65.091
58.765
54.404
52.157
51.579
52.236
53.872
55.996
57.995
59.554
60.516
60.843
60.692
60.156
59.276
58.145
56.852
55.452
53.984
52.465
50.901
49.328
47.809
46.387
45.091
43.935
42.919
42.038
41.287
40.646
40.082
39.569
39.088
38.623
38.159
37.674
37.137
36.512
35.771
34.887
33.831
32.572
31.075
29.303
27.239
24.883
22.249
19.341
16.161
12.712
9.008
5.074
0.926
-3.44
-8.053
-12.94
-18.107
-23.537
-29.186
-35.015
-41.004
-47.159
-53.49
-59.989
-66.641
-73.445
-80.425
-87.622
-95.032
-102.585
-110.155
-117.613
-124.869
-131.869
-138.579
-144.957
-150.935
-156.432
-161.378
-165.729
-169.434
-172.418
-174.564
-175.739
-175.881
-175.016
-173.248
-170.676
-167.36
-163.332
-158.619
-153.268
-147.346
-140.911
-133.999
-126.631
-118.854
-110.744
-102.43
-94.045
-85.673
-77.329
-68.979
-60.599
-52.199
-43.801
-35.428
-27.086
-18.779
-10.535
-2.411
5.534
13.264
20.763
28.046
35.129
42.001
48.629
54.962
60.959
66.595
71.848
76.697
81.112
85.075
88.588
91.67
94.344
96.623
98.515
100.025
101.16
101.938
102.379
102.507
102.345
101.915
101.244
100.36
99.294
98.072
96.717
95.245
93.674
92.023
90.31
88.553
86.764
84.958
83.146
81.34
79.55
77.782
76.039
74.323
72.634
70.969
69.325
67.697
66.078
64.462
62.839
61.201
59.54
57.843
56.102
54.304
52.438
50.493
48.457
46.318
44.068
41.694
39.19
36.548
33.76
30.823
27.731
24.482
21.077
17.517
13.803
9.941
5.937
1.803
-2.451
-6.809
-11.257
-15.776
-20.348
-24.952
-29.569
-34.177
-38.756
-43.284
-47.74
-52.101
-56.343
-60.443
-64.376
-68.115
-71.636
-74.913
-77.922
-80.644
-83.059
-85.15
-86.904
-88.312
-89.362
-90.048
-90.365
-90.309
-89.883
-89.088
-87.93
-86.42
-84.575
-82.409
-79.942
-77.195
-74.182
-70.918
-67.409
-63.651
-59.646
-55.402
-50.923
-46.221
-41.311
-36.214
-30.971
-25.642
-20.28
-14.951
-9.71
-4.605
0.296
4.93
9.226
13.097
16.486
19.362
21.693
23.445
24.592
25.126
25.119
24.734
24.166
23.597
23.145
22.966
23.336
24.435
26.358
28.967
31.749
34.275
36.377
37.77
38.063
37.087
34.777
31.746
29.675
29.913
33.11
40.236
52.191
69.118
91.048
114.968
134.152
145.255
146.807
139.159
127.403
107.521
69.722
8.432
-84.199
-203.365
-334.206
-469.742
-598.897
-712.438
-803.85
-854.9
-851.793
-790.752
-675.821
-523.201
-348.989
-166.203
13.25
176.726
307.681
396.251
439.312
441.268
413.359
359.506
283.062
191.272
93.411
5.51
-60.51
-103.973
-131.574
-152.773
-173.743
-193.523
-206.265
-208.628
-200.862
-186.016
-169.951
-156.565
-146.773
-140.573
-136.966
-134.733
-133.318
-132.009
-129.488
-124.58
-116.748
-105.906
-92.477
-77.206
-60.65
-43.328
-25.974
-9.289
6.254
20.354
32.945
44.111
53.892
62.33
69.523
75.59
80.685
84.965
88.576
91.662
94.341
96.716
98.896
100.962
102.97
104.962
106.944
108.902
110.83
112.709
114.51
116.206
117.748
119.071
120.109
120.788
121.053
120.868
120.203
119.039
117.37
115.199
112.542
109.429
105.878
101.91
97.543
92.796
87.691
82.259
76.527
70.528
64.293
57.849
51.226
44.451
37.549
30.546
23.463
16.321
9.144
1.958
-5.21
-12.332
-19.377
-26.318
-33.123
-39.765
-46.212
-52.44
-58.421
-64.131
-69.547
-74.646
-79.408
-83.813
-87.843
-91.483
-94.717
-97.535
-99.926
-101.882
-103.4
-104.476
-105.11
-105.306
-105.068
-104.403
-103.321
-101.833
-99.952
-97.694
-95.075
-92.116
-88.837
-85.26
-81.411
-77.315
-73
-68.494
-63.826
-59.025
-54.122
-49.146
-44.127
-39.094
-34.075
-29.1
-24.196
-19.388
-14.702
-10.162
-5.791
-1.607
2.369
6.123
9.64
12.908
15.918
18.663
21.137
23.338
25.264
26.915
28.296
29.409
30.263
30.865
31.224
31.354
31.267
30.977
30.5
29.853
29.053
28.117
27.064
25.912
24.678
23.383
22.042
20.675
19.298
17.927
16.578
15.265
14.002
12.799
11.667
10.615
9.648
8.773
7.994
7.311
6.728
6.243
5.855
5.562
5.362
5.248
5.216
5.26
5.371
5.541
5.761
6.02
6.31
6.618
6.935
7.25
7.553
7.833
8.082
8.289
8.445
8.541
8.57
8.523
8.393
8.177
7.869
7.466
6.969
6.377
5.691
4.914
4.048
3.099
2.069
0.965
-0.21
-1.449
-2.746
-4.094
-5.484
-6.906
-8.349
-9.799
-11.242
-12.665
-14.054
-15.395
-16.676
-17.886
-19.017
-20.063
-21.019
-21.875
-22.627
-23.268
-23.794
-24.202
-24.489
-24.653
-24.699
-24.63
-24.452
-24.178
-23.812
-23.354
-22.8
-22.132
-21.332
-20.394
-19.311
-18.076
-16.695
-15.176
-13.544
-11.848
-10.134
-8.447
-6.833
-5.319
-3.942
-2.754
-1.797
-1.131
-0.814
-0.858
-1.271
-2.057
-3.185
-4.628
-6.309
-8.057
-9.686
-10.993
-11.76
-11.85
-11.096
-9.239
-6.142
-1.762
3.801
10.142
16.801
23.499
29.874
35.408
39.751
42.722
44.606
46.412
49.351
54.251
61.608
72.27
87.025
105.683
127.106
147.763
161.876
166.302
159.631
141.715
115.523
79.181
28.102
-41.454
-135.091
-251.58
-385.093
-526.879
-660.037
-766.801
-827.054
-824.563
-759.247
-639.865
-485.995
-317.196
-137.354
48.599
235.368
411.802
549.201
630.242
653.225
625.632
571.159
505.027
427.513
341.341
249.161
158.965
88.029
43.865
22.286
16.613
15.957
15.784
19.841
29.073
43.086
58.703
70.154
75.277
74.263
68.02
58.527
47.326
35.752
25.807
18.803
15.031
14.326
16.026
19.403
23.98
29.191
34.259
38.672
42.161
44.572
45.996
46.52
46.13
44.876
42.859
40.158
36.921
33.332
29.507
25.562
21.59
17.626
13.718
9.913
6.234
2.71
-0.644
-3.832
-6.837
-9.636
-12.227
-14.62
-16.862
-19.034
-21.197
-23.395
-25.658
-28.001
-30.436
-32.973
-35.605
-38.313
-41.077
-43.882
-46.718
-49.586
-52.478
-55.378
-58.268
-61.121
-63.916
-66.634
-69.254
-71.756
-74.121
-76.333
-78.379
-80.253
-81.945
-83.444
-84.738
-85.814
-86.659
-87.264
-87.617
-87.709
-87.529
-87.071
-86.33
-85.303
-83.989
-82.386
-80.494
-78.315
-75.851
-73.107
-70.085
-66.793
-63.236
-59.422
-55.359
-51.057
-46.525
-41.775
-36.817
-31.664
-26.327
-20.821
-15.157
-9.348
-3.408
2.65
8.812
15.064
21.393
27.785
34.227
40.706
47.208
53.724
60.24
66.748
73.237
79.698
86.122
92.501
98.826
105.091
111.287
117.408
123.446
129.396
135.251
141.005
146.652
152.185
157.597
162.883
168.035
173.049
177.916
182.632
187.189
191.583
195.807
199.855
203.723
207.404
210.892
214.18
217.264
220.137
222.792
225.224
227.426
229.393
231.119
232.599
233.829
234.803
235.518
235.969
236.154
236.07
235.716
235.091
234.196
233.031
231.599
229.904
227.948
225.739
223.28
220.577
217.637
214.467
211.076
207.472
203.665
199.665
195.484
191.134
186.629
181.983
177.211
172.326
167.345
162.283
157.155
151.978
146.767
141.539
136.31
131.098
125.919
120.79
115.725
110.74
105.85
101.067
96.404
91.874
87.488
83.255
79.188
75.297
71.593
68.086
64.784
61.696
58.83
56.192
53.786
51.615
49.68
47.984
46.526
45.308
44.33
43.593
43.1
42.851
42.846
43.085
43.566
44.282
45.226
46.389
47.759
49.327
51.08
53.006
55.093
57.329
59.701
62.195
64.793
67.475
70.219
73.007
75.816
78.627
81.427
84.208
86.98
89.746
92.506
95.262
98.007
100.735
103.434
106.079
108.628
111.034
113.247
115.223
116.931
118.335
119.403
120.087
120.316
120.057
119.302
118.046
116.29
114.014
111.214
107.958
104.403
100.741
97.168
93.843
90.943
88.721
87.354
86.929
87.359
88.229
89.063
89.501
89.129
87.501
84.395
79.788
74.206
68.964
65.517
65.131
68.968
77.932
92.466
112.351
135.884
159.824
180.343
193.449
195.085
181.406
149.054
95.309
20.996
-69.03
-169.453
-274
-378.726
-484.88
-590.179
-686.744
-762.979
-800.04
-781.965
-705.538
-574.613
-400.447
-201.581
5.813
203.534
367.825
482.08
539.198
542.803
511.227
464.372
413.329
362.928
310.852
252.35
189.411
126.825
69.963
25.231
-5.49
-23.723
-31.435
-31.62
-27.258
-20.222
-12.738
-7.759
-6.823
-10.299
-17.997
-28.731
-41.128
-54.29
-67.003
-77.627
-85.275
-89.64
-90.725
-89.164
-85.671
-80.741
-74.984
-69.085
-63.44
-58.296
-53.843
-50.097
-47.068
-44.807
-43.292
-42.471
-42.34
-42.88
-44.034
-45.724
-47.807
-50.115
-52.546
-55.044
-57.568
-60.095
-62.583
-64.984
-67.292
-69.525
-71.692
-73.801
-75.857
-77.86
-79.852
-81.902
-84.084
-86.475
-89.13
-92.077
-95.344
-98.945
-102.888
-107.174
-111.788
-116.703
-121.9
-127.366
-133.086
-139.046
-145.223
-151.582
-158.091
-164.713
-171.413
-178.158
-184.911
-191.64
-198.313
-204.902
-211.38
-217.723
-223.904
-229.895
-235.667
-241.191
-246.437
-251.379
-255.991
-260.246
-264.121
-267.598
-270.658
-273.287
-275.473
-277.207
-278.481
-279.291
-279.633
-279.506
-278.914
-277.859
-276.348
-274.39
-271.996
-269.178
-265.952
-262.335
-258.345
-254.003
-249.327
-244.341
-239.066
-233.527
-227.748
-221.755
-215.573
-209.229
-202.752
-196.168
-189.505
-182.79
-176.051
-169.313
-162.601
-155.939
-149.351
-142.858
-136.483
-130.245
-124.164
-118.258
-112.544
-107.039
-101.758
-96.713
-91.917
-87.38
-83.111
-79.12
-75.412
-71.993
-68.869
-66.042
-63.515
-61.29
-59.365
-57.741
-56.413
-55.38
-54.636
-54.175
-53.992
-54.079
-54.428
-55.032
-55.882
-56.969
-58.283
-59.814
-61.551
-63.483
-65.599
-67.887
-70.333
-72.927
-75.656
-78.509
-81.473
-84.537
-87.689
-90.919
-94.216
-97.57
-100.97
-104.407
-107.872
-111.355
-114.849
-118.347
-121.841
-125.324
-128.793
-132.24
-135.663
-139.057
-142.419
-145.744
-149.029
-152.272
-155.47
-158.62
-161.719
-164.768
-167.764
-170.706
-173.594
-176.426
-179.202
-181.921
-184.58
-187.178
-189.712
-192.178
-194.573
-196.893
-199.132
-201.285
-203.348
-205.312
-207.17
-208.916
-210.54
-212.034
-213.388
-214.588
-215.618
-216.465
-217.113
-217.547
-217.751
-217.71
-217.41
-216.84
-215.995
-214.867
-213.447
-211.728
-209.697
-207.346
-204.669
-201.659
-198.31
-194.622
-190.594
-186.233
-181.556
-176.574
-171.294
-165.718
-159.83
-153.623
-147.097
-140.256
-133.112
-125.689
-118.013
-110.127
-102.099
-93.989
-85.852
-77.74
-69.68
-61.708
-53.871
-46.223
-38.837
-31.788
-25.128
-18.88
-13.04
-7.573
-2.424
2.472
7.205
11.894
16.682
21.699
27.043
32.809
39.056
45.931
53.727
62.57
72.347
82.737
93.113
102.82
111.406
118.253
122.485
123.732
122.267
118.925
115.361
113.538
115.051
121.163
133.248
150.331
168.58
185.783
199.563
208.521
215.094
214.168
194.416
147.716
66.375
-46.381
-174.421
-307.039
-437.729
-560.496
-673.277
-762.566
-804.656
-786.246
-704.704
-573.581
-420.704
-264.229
-109.539
45.552
205.64
363.522
498.552
589.57
625.367
609.293
559.027
494.209
426.797
361.187
295.907
230.456
168.362
115.231
76.29
53.012
43.865
45.982
55.467
68.938
83.331
95.131
102.153
103.767
100.068
92.157
81.625
69.873
58.493
49.337
43.481
41.268
42.648
47.005
53.55
61.618
70.48
79.377
87.86
95.683
102.665
108.757
113.926
118.133
121.413
123.833
125.416
126.201
126.269
125.747
124.825
123.683
122.425
121.11
119.773
118.446
117.176
116.01
114.956
114.001
113.138
112.368
111.694
111.099
110.533
109.908
109.124
108.11
106.816
105.211
103.274
100.987
98.338
95.333
91.992
88.335
84.374
80.115
75.565
70.738
65.66
60.365
54.889
49.263
43.52
37.695
31.822
25.936
20.067
14.243
8.488
2.832
-2.694
-8.056
-13.221
-18.156
-22.829
-27.208
-31.259
-34.952
-38.262
-41.163
-43.634
-45.655
-47.21
-48.284
-48.867
-48.951
-48.531
-47.604
-46.172
-44.239
-41.814
-38.908
-35.535
-31.712
-27.459
-22.799
-17.757
-12.36
-6.638
-0.618
5.666
12.182
18.897
25.776
32.782
39.882
47.038
54.215
61.376
68.489
75.518
82.432
89.201
95.796
102.191
108.36
114.282
119.936
125.307
130.378
135.138
139.579
143.693
147.478
150.934
154.062
156.867
159.357
161.541
163.431
165.039
166.38
167.471
168.328
168.971
169.419
169.692
169.81
169.795
169.666
169.445
169.152
168.807
168.43
168.038
167.649
167.28
166.947
166.663
166.44
166.291
166.224
166.247
166.365
166.584
166.903
167.325
167.847
168.466
169.177
169.975
170.851
171.796
172.803
173.859
174.954
176.077
177.217
178.363
179.503
180.628
181.726
182.788
183.805
184.767
185.667
186.497
187.248
187.915
188.493
188.977
189.364
189.651
189.836
189.918
189.899
189.78
189.563
189.251
188.849
188.361
187.794
187.157
186.456
185.701
184.902
184.068
183.208
182.333
181.45
180.566
179.689
178.825
177.979
177.156
176.364
175.607
174.894
174.23
173.623
173.077
172.596
172.184
171.839
171.558
171.337
171.17
171.052
170.979
170.944
170.94
170.96
170.996
171.036
171.068
171.077
171.049
170.962
170.805
170.567
170.249
169.864
169.422
168.924
168.373
167.767
167.099
166.365
165.539
164.577
163.443
162.094
160.498
158.642
156.49
154.01
151.171
147.906
144.178
139.999
135.375
130.331
124.915
119.141
113.09
106.933
100.837
95.019
89.665
84.858
80.782
77.677
75.677
74.885
75.136
75.888
76.7
77.302
77.255
76.119
73.569
69.355
64.013
58.937
55.344
53.973
55.739
61.699
72.297
87.644
105.332
119.682
127.379
127.206
119.211
106.647
86.18
48.004
-14.386
-106.018
-222.234
-347.084
-468.866
-580.485
-678.109
-760.978
-821.88
-845.253
-815.7
-726.487
-579.312
-385.251
-165.136
60.53
269.226
435.575
545.591
595.788
591.515
548.151
479.059
392.944
299.339
208.468
130.258
72.568
35.741
12.028
-6.071
-23.039
-38.599
-46.913
-44.717
-32.742
-14.079
5.149
20.431
30.568
35.555
36.377
34.244
29.711
23.468
16.944
11.583
8.176
7.014
7.884
10.233
13.69
17.963
22.506
26.721
30.205
32.683
34.092
34.551
34.144
32.942
31.083
28.74
26.058
23.163
20.131
16.988
13.758
10.45
7.068
3.611
0.09
-3.465
-7.034
-10.608
-14.191
-17.806
-21.483
-25.271
-29.215
-33.37
-37.779
-42.473
-47.469
-52.774
-58.383
-64.288
-70.481
-76.954
-83.7
-90.708
-97.967
-105.459
-113.167
-121.064
-129.123
-137.311
-145.597
-153.95
-162.337
-170.729
-179.097
-187.411
-195.645
-203.768
-211.75
-219.558
-227.161
-234.525
-241.618
-248.407
-254.861
-260.949
-266.643
-271.917
-276.746
-281.108
-284.981
-288.345
-291.186
-293.487
-295.237
-296.426
-297.049
-297.1
-296.578
-295.485
-293.827
-291.609
-288.842
-285.538
-281.713
-277.382
-272.567
-267.289
-261.571
-255.438
-248.917
-242.038
-234.83
-227.325
-219.556
-211.556
-203.36
-195.003
-186.519
-177.943
-169.309
-160.653
-152.007
-143.406
-134.881
-126.464
-118.185
-110.073
-102.155
-94.458
-87.006
-79.82
-72.922
-66.33
-60.06
-54.129
-48.548
-43.329
-38.481
-34.01
-29.922
-26.218
-22.901
-19.967
-17.416
-15.242
-13.438
-11.997
-10.91
-10.166
-9.753
-9.658
-9.866
-10.362
-11.128
-12.149
-13.406
-14.88
-16.553
-18.408
-20.424
-22.585
-24.87
-27.263
-29.746
-32.301
-34.912
-37.562
-40.237
-42.923
-45.607
-48.278
-50.925
-53.541
-56.118
-58.648
-61.128
-63.553
-65.92
-68.227
-70.473
-72.658
-74.783
-76.853
-78.87
-80.839
-82.768
-84.662
-86.531
-88.38
-90.22
-92.057
-93.9
-95.758
-97.639
-99.553
-101.508
-103.512
-105.573
-107.699
-109.896
-112.169
-114.522
-116.955
-119.469
-122.062
-124.731
-127.473
-130.281
-133.149
-136.069
-139.033
-142.029
-145.048
-148.077
-151.099
-154.099
-157.056
-159.948
-162.753
-165.449
-168.009
-170.413
-172.636
-174.659
-176.462
-178.029
-179.341
-180.382
-181.133
-181.576
-181.693
-181.467
-180.888
-179.946
-178.636
-176.955
-174.906
-172.497
-169.737
-166.633
-163.181
-159.364
-155.172
-150.604
-145.668
-140.381
-134.762
-128.835
-122.638
-116.229
-109.672
-103.028
-96.344
-89.647
-82.965
-76.333
-69.807
-63.477
-57.409
-51.632
-46.152
-40.963
-36.05
-31.414
-27.025
-22.772
-18.515
-14.098
-9.392
-4.337
1.09
6.953
13.451
20.733
28.744
37.185
45.505
53.208
60.034
65.659
69.482
71.08
70.483
68.347
66.146
65.174
66.262
70.587
79.375
93.174
110.415
127.028
138.399
141.629
138.534
133.017
124.629
108.169
72.837
7.176
-90.153
-212.348
-346.341
-475.376
-587.951
-673.013
-719.906
-721.882
-671.282
-568.978
-422.629
-239.287
-34.306
175.536
372.591
532.753
640.875
693.01
693.585
655.69
589.3
500.997
397.456
289.263
195.119
129.238
97.302
93.698
99.873
102.34
96.461
84.722
76.726
77.185
84.245
93.226
98.442
97.836
92.278
83.249
72.485
60.881
49.252
39.147
31.449
26.344
23.775
23.151
23.895
25.748
28.247
30.775
33.022
34.815
36.079
36.933
37.389
37.389
36.993
36.289
35.371
34.395
33.456
32.614
31.98
31.622
31.581
31.894
32.544
33.499
34.758
36.317
38.19
40.396
42.927
45.764
48.872
52.187
55.648
59.199
62.769
66.308
69.777
73.143
76.391
79.524
82.533
85.41
88.144
90.715
93.109
95.32
97.337
99.159
100.788
102.223
103.471
104.541
105.439
106.17
106.738
107.143
107.389
107.48
107.42
107.219
106.885
106.427
105.858
105.192
104.443
103.625
102.752
101.837
100.894
99.937
98.979
98.034
97.116
96.237
95.411
94.651
93.971
93.384
92.903
92.538
92.301
92.203
92.253
92.461
92.833
93.378
94.102
95.01
96.108
97.401
98.891
100.581
102.473
104.565
106.857
109.344
112.022
114.885
117.926
121.138
124.511
128.036
131.702
135.496
139.406
143.417
147.513
151.679
155.896
160.146
164.409
168.667
172.898
177.081
181.197
185.222
189.137
192.919
196.546
199.998
203.253
206.291
209.093
211.64
213.913
215.898
217.579
218.943
219.978
220.674
221.022
221.014
220.646
219.913
218.815
217.35
215.52
213.33
210.784
207.89
204.657
201.096
197.22
193.041
188.577
183.842
178.856
173.636
168.203
162.578
156.78
150.832
144.755
138.572
132.304
125.971
119.594
113.193
106.788
100.396
94.035
87.72
81.467
75.29
69.201
63.211
57.33
51.565
45.924
40.413
35.036
29.796
24.695
19.732
14.908
10.221
5.667
1.244
-3.055
-7.234
-11.3
-15.258
-19.116
-22.881
-26.559
-30.157
-33.679
-37.132
-40.519
-43.844
-47.11
-50.318
-53.468
-56.558
-59.587
-62.552
-65.447
-68.266
-70.997
-73.629
-76.152
-78.554
-80.819
-82.934
-84.884
-86.654
-88.234
-89.614
-90.78
-91.717
-92.411
-92.846
-93.007
-92.883
-92.46
-91.725
-90.668
-89.285
-87.579
-85.555
-83.213
-80.548
-77.548
-74.206
-70.525
-66.51
-62.171
-57.526
-52.601
-47.435
-42.089
-36.617
-31.067
-25.477
-19.876
-14.297
-8.781
-3.381
1.843
6.841
11.57
15.987
20.069
23.836
27.324
30.616
33.815
36.979
40.184
43.516
47.045
50.837
54.936
59.362
64.199
69.634
75.752
82.465
89.498
96.351
102.554
107.722
111.319
112.605
111.083
106.832
100.448
93.06
85.947
80.19
76.961
77.754
82.273
87.855
91.837
92.112
90.488
91.375
94.418
92.479
70.611
14.889
-76.917
-195.891
-322.953
-441.752
-549.113
-646.058
-733.164
-804.79
-842.766
-829.066
-757.374
-630.522
-460.103
-264.289
-59.085
138.625
306.949
428.872
496.121
509.832
481.308
423.286
345.63
255.856
163.545
83.277
25.864
-3.52
-8.53
-3.596
0.76
0.887
-1.841
-0.368
8.646
23.017
38.364
49.731
55.126
55.064
50.845
44.068
35.574
26.276
17.682
10.678
5.65
2.665
1.266
1.018
1.635
2.656
3.514
3.883
3.614
2.686
1.244
-0.622
-2.864
-5.399
-8.138
-11.021
-14.016
-17.1
-20.271
-23.499
-26.724
-29.908
-33.028
-36.071
-39.041
-41.945
-44.785
-47.572
-50.33
-53.075
-55.815
-58.561
-61.315
-64.087
-66.899
-69.768
-72.715
-75.756
-78.906
-82.173
-85.565
-89.087
-92.735
-96.507
-100.395
-104.393
-108.498
-112.703
-117.002
-121.384
-125.838
-130.351
-134.908
-139.494
-144.088
-148.671
-153.221
-157.718
-162.141
-166.47
-170.681
-174.755
-178.67
-182.404
-185.937
-189.249
-192.318
-195.126
-197.654
-199.884
-201.8
-203.388
-204.635
-205.529
-206.061
-206.223
-206.009
-205.416
-204.443
-203.089
-201.357
-199.251
-196.779
-193.95
-190.773
-187.261
-183.43
-179.295
-174.874
-170.186
-165.25
-160.088
-154.723
-149.176
-143.47
-137.631
-131.68
-125.644
-119.544
-113.407
-107.255
-101.11
-94.996
-88.933
-82.942
-77.042
-71.253
-65.589
-60.069
-54.704
-49.51
-44.496
-39.673
-35.048
-30.628
-26.418
-22.42
-18.637
-15.067
-11.711
-8.565
-5.625
-2.884
-0.337
2.025
4.211
6.232
8.099
9.823
11.417
12.894
14.268
15.551
16.759
17.904
19
20.062
21.104
22.138
23.178
24.237
25.326
26.457
27.64
28.885
30.201
31.594
33.072
34.639
36.3
38.058
39.915
41.87
43.923
46.071
48.31
50.636
53.042
55.52
58.063
60.662
63.307
65.989
68.696
71.417
74.141
76.855
79.547
82.201
84.806
87.346
89.809
92.18
94.446
96.595
98.614
100.493
102.219
103.782
105.175
106.387
107.413
108.246
108.882
109.319
109.557
109.598
109.444
109.102
108.578
107.879
107.015
105.996
104.831
103.531
102.11
100.581
98.959
97.261
95.506
93.717
91.914
90.121
88.36
86.652
85.019
83.478
82.046
80.737
79.567
78.549
77.695
77.018
76.526
76.227
76.129
76.231
76.53
77.025
77.706
78.563
79.59
80.783
82.144
83.688
85.42
87.338
89.444
91.731
94.187
96.793
99.509
102.279
105.05
107.762
110.362
112.807
115.03
116.971
118.561
119.711
120.364
120.49
120.054
119.028
117.393
115.149
112.371
109.222
105.87
102.495
99.237
96.268
93.861
92.207
91.389
91.313
91.596
91.801
91.619
90.673
88.478
84.758
79.421
72.915
66.508
61.578
59.317
60.809
66.906
78.088
94.274
113.976
134.119
151.009
160.779
159.502
143.456
109.209
53.844
-22.286
-115.126
-219.533
-329.061
-440.216
-553.427
-666.236
-773.424
-862.351
-914.216
-915.23
-856.026
-739.511
-577.076
-377.6
-157.48
65.839
273.374
436.339
535.049
565.018
529.357
444.841
335.759
217.293
106.721
23.473
-28.214
-46.471
-36.744
-18.782
-2.684
8.308
13.837
22.346
37.327
55.656
73.771
86.895
92.923
93.081
89.263
83.392
76.875
71.012
66.867
64.917
65.386
68.002
72.149
77.359
83.081
88.662
93.735
98.12
101.73
104.673
107.047
108.877
110.264
111.308
112.049
112.525
112.741
112.687
112.4
111.939
111.365
110.727
110.046
109.327
108.574
107.789
106.971
106.116
105.203
104.221
103.167
102.035
100.823
99.52
98.106
96.558
94.855
92.977
90.909
88.642
86.164
83.471
80.558
77.421
74.062
70.477
66.664
62.619
58.339
53.823
49.073
44.092
38.883
33.452
27.807
21.958
15.914
9.688
3.291
-3.264
-9.963
-16.791
-23.73
-30.763
-37.872
-45.035
-52.233
-59.441
-66.636
-73.795
-80.893
-87.903
-94.801
-101.56
-108.155
-114.56
-120.751
-126.704
-132.393
-137.797
-142.893
-147.661
-152.082
-156.138
-159.812
-163.09
-165.959
-168.41
-170.435
-172.026
-173.18
-173.895
-174.172
-174.012
-173.421
-172.404
-170.971
-169.132
-166.901
-164.293
-161.326
-158.018
-154.391
-150.467
-146.27
-141.826
-137.159
-132.298
-127.269
-122.101
-116.821
-111.458
-106.04
-100.593
-95.146
-89.725
-84.355
-79.061
-73.865
-68.79
-63.855
-59.078
-54.475
-50.063
-45.852
-41.853
-38.076
-34.526
-31.21
-28.129
-25.284
-22.674
-20.296
-18.143
-16.21
-14.487
-12.964
-11.63
-10.473
-9.478
-8.633
-7.922
-7.331
-6.844
-6.447
-6.124
-5.861
-5.643
-5.457
-5.29
-5.131
-4.971
-4.801
-4.613
-4.403
-4.166
-3.9
-3.605
-3.281
-2.931
-2.557
-2.165
-1.761
-1.354
-0.952
-0.567
-0.21
0.106
0.368
0.56
0.668
0.678
0.575
0.344
-0.028
-0.556
-1.252
-2.13
-3.2
-4.473
-5.959
-7.664
-9.595
-11.755
-14.144
-16.764
-19.609
-22.675
-25.954
-29.437
-33.112
-36.966
-40.984
-45.15
-49.445
-53.85
-58.342
-62.897
-67.489
-72.088
-76.664
-81.187
-85.625
-89.947
-94.123
-98.123
-101.922
-105.496
-108.82
-111.872
-114.627
-117.066
-119.167
-120.917
-122.299
-123.299
-123.911
-124.129
-123.954
-123.394
-122.451
-121.124
-119.41
-117.297
-114.778
-111.859
-108.544
-104.836
-100.755
-96.32
-91.57
-86.568
-81.37
-76.024
-70.585
-65.092
-59.602
-54.19
-48.925
-43.882
-39.138
-34.727
-30.681
-27.041
-23.806
-20.968
-18.481
-16.216
-14.037
-11.813
-9.394
-6.671
-3.491
0.379
5.08
10.66
17.021
23.82
30.672
37.268
43.223
48.12
51.635
53.537
54.163
54.501
55.676
58.883
64.943
74.135
86.988
103.912
123.689
144.146
161.126
168.346
162.97
144.122
112.548
72.52
23.333
-38.362
-115.594
-213.665
-330.749
-460.625
-594.344
-714.773
-806.597
-854.078
-841.999
-768.702
-636.675
-454.213
-242.715
-21.125
186.77
352.506
465.386
523.443
536.106
526.81
507.414
481.288
448.185
400.892
339.69
271.954
204.72
145.99
101.242
71.892
57.6
56.672
66.303
83.305
104.934
128.511
150.793
169.027
181.705
188.318
189.475
186.442
180.252
171.953
163.076
155.13
149.003
145.046
143.051
142.45
142.84
143.916
145.212
146.238
146.705
146.499
145.684
144.465
142.968
141.247
139.375
137.422
135.445
133.502
131.624
129.826
128.124
126.534
125.064
123.724
122.51
121.411
120.407
119.472
118.586
117.738
116.921
116.133
115.359
114.581
113.775
112.914
111.977
110.941
109.783
108.479
107.01
105.363
103.526
101.492
99.253
96.795
94.107
91.177
87.997
84.561
80.862
76.898
72.668
68.174
63.422
58.419
53.173
47.692
41.987
36.07
29.953
23.65
17.179
10.556
3.801
-3.065
-10.019
-17.037
-24.093
-31.162
-38.215
-45.226
-52.165
-59.005
-65.718
-72.274
-78.647
-84.809
-90.732
-96.39
-101.76
-106.817
-111.54
-115.908
-119.902
-123.505
-126.703
-129.483
-131.833
-133.744
-135.208
-136.221
-136.777
-136.875
-136.516
-135.702
-134.438
-132.73
-130.588
-128.022
-125.046
-121.674
-117.922
-113.809
-109.355
-104.581
-99.508
-94.16
-88.562
-82.738
-76.714
-70.515
-64.166
-57.694
-51.123
-44.479
-37.785
-31.067
-24.347
-17.647
-10.99
-4.397
2.113
8.521
14.809
20.96
26.959
32.793
38.447
43.911
49.175
54.229
59.066
63.681
68.068
72.225
76.15
79.842
83.302
86.532
89.533
92.308
94.861
97.196
99.316
101.226
102.929
104.431
105.735
106.845
107.765
108.498
109.047
109.414
109.601
109.608
109.437
109.087
108.559
107.853
106.967
105.903
104.657
103.23
101.619
99.821
97.835
95.655
93.279
90.702
87.919
84.928
81.723
78.303
74.664
70.805
66.725
62.421
57.895
53.148
48.182
43.001
37.609
32.012
26.221
20.245
14.098
7.792
1.345
-5.229
-11.909
-18.679
-25.518
-32.407
-39.326
-46.251
-53.162
-60.031
-66.834
-73.541
-80.123
-86.55
-92.79
-98.814
-104.592
-110.095
-115.3
-120.183
-124.723
-128.9
-132.694
-136.086
-139.059
-141.598
-143.689
-145.324
-146.496
-147.207
-147.457
-147.253
-146.608
-145.53
-144.027
-142.099
-139.733
-136.924
-133.679
-130.008
-125.925
-121.452
-116.616
-111.461
-106.052
-100.455
-94.736
-88.95
-83.14
-77.351
-71.638
-66.072
-60.748
-55.733
-51.051
-46.726
-42.77
-39.192
-36.014
-33.186
-30.558
-27.974
-25.27
-22.288
-18.966
-15.207
-10.81
-5.67
0.215
6.673
13.211
19.316
24.729
29.189
32.275
33.75
33.59
32.217
30.928
31.192
33.832
39.27
48.249
61.247
77.662
96.166
112.71
120.954
117.896
102.575
75.628
41.635
0.304
-52.405
-119.659
-207.211
-314.462
-435.439
-561.589
-675.835
-761.411
-801.559
-781.3
-700.091
-564.516
-386.053
-184.307
24.413
222.91
388.189
504.602
563.243
563.912
521.428
452.008
370.354
290.427
217.535
155.864
106.898
65.633
30.468
-0.399
-27.052
-44.162
-49.807
-44.328
-29.904
-12.046
4.897
18.222
26.576
30.223
29.733
25.751
19.197
11.015
2.535
-4.767
-10.152
-13.388
-14.596
-14.249
-12.721
-10.289
-7.399
-4.536
-1.985
0.1
1.714
2.984
4.006
4.883
5.725
6.627
7.671
8.911
10.387
12.136
14.168
16.469
19.022
21.799
24.785
27.981
31.377
34.955
38.687
42.52
46.414
50.342
54.265
58.144
61.933
65.572
69.024
72.271
75.291
78.063
80.566
82.769
84.653
86.206
87.416
88.273
88.765
88.881
88.615
87.965
86.934
85.526
83.746
81.596
79.084
76.222
73.021
69.497
65.667
61.546
57.154
52.514
47.65
42.587
37.352
31.972
26.476
20.893
15.253
9.589
3.93
-1.691
-7.244
-12.698
-18.021
-23.185
-28.16
-32.917
-37.429
-41.671
-45.617
-49.244
-52.531
-55.458
-58.006
-60.159
-61.903
-63.225
-64.115
-64.564
-64.565
-64.114
-63.207
-61.844
-60.026
-57.757
-55.042
-51.888
-48.305
-44.304
-39.898
-35.103
-29.933
-24.408
-18.547
-12.369
-5.898
0.845
7.835
15.049
22.461
30.045
37.774
45.623
53.563
61.568
69.61
77.661
85.695
93.685
101.604
109.426
117.124
124.674
132.052
139.233
146.193
152.913
159.369
165.544
171.419
176.976
182.202
187.081
191.603
195.755
199.53
202.919
205.915
208.515
210.715
212.514
213.911
214.907
215.507
215.714
215.534
214.975
214.045
212.753
211.109
209.127
206.818
204.195
201.274
198.069
194.596
190.873
186.917
182.747
178.38
173.833
169.126
164.276
159.302
154.219
149.044
143.794
138.483
133.128
127.743
122.342
116.939
111.545
106.172
100.831
95.532
90.281
85.086
79.954
74.889
69.897
64.982
60.147
55.393
50.724
46.139
41.642
37.231
32.906
28.665
24.506
20.431
16.436
12.521
8.685
4.927
1.25
-2.342
-5.845
-9.253
-12.564
-15.772
-18.869
-21.85
-24.711
-27.45
-30.064
-32.551
-34.9
-37.103
-39.15
-41.036
-42.752
-44.289
-45.637
-46.786
-47.734
-48.487
-49.045
-49.401
-49.542
-49.443
-49.089
-48.471
-47.582
-46.417
-44.975
-43.261
-41.302
-39.141
-36.818
-34.365
-31.803
-29.141
-26.406
-23.636
-20.877
-18.182
-15.582
-13.097
-10.76
-8.579
-6.534
-4.579
-2.628
-0.585
1.629
4.099
6.918
10.207
14.08
18.602
23.883
30.077
37.251
45.4
54.323
63.482
72.354
80.542
87.493
92.589
95.391
95.634
93.774
91.168
89.05
88.209
89.727
94.803
104.099
118.088
134.417
147.487
154.265
153.318
144.706
131.737
110.161
69.677
3.534
-93.643
-216.749
-349.744
-481.307
-604.494
-715.121
-811.354
-884.376
-917.242
-895.139
-813.068
-675.213
-494.594
-290.02
-78.207
122.554
288.134
399.1
445.825
430.033
370.47
291.396
208.363
129.407
54.421
-20.821
-94.32
-160.027
-212.097
-245.702
-260.738
-260.572
-249.757
-233.484
-216.254
-202.284
-194.541
-194.174
-201.334
-215.042
-233.306
-253.994
-274.83
-293.248
-307.667
-317.414
-322.15
-322.239
-318.316
-310.99
-301.173
-289.888
-277.748
-265.178
-252.524
-239.914
-227.568
-215.724
-204.439
-193.767
-183.791
-174.572
-166.207
-158.765
-152.212
-146.489
-141.527
-137.23
-133.53
-130.319
-127.436
-124.75
-122.143
-119.525
-116.867
-114.135
-111.298
-108.359
-105.339
-102.275
-99.228
-96.254
-93.388
-90.686
-88.2
-85.992
-84.142
-82.706
-81.719
-81.209
-81.186
-81.656
-82.625
-84.078
-85.989
-88.33
-91.074
-94.193
-97.669
-101.474
-105.575
-109.937
-114.521
-119.294
-124.223
-129.276
-134.418
-139.613
-144.83
-150.034
-155.197
-160.286
-165.265
-170.096
-174.744
-179.17
-183.343
-187.226
-190.788
-193.997
-196.827
-199.255
-201.259
-202.823
-203.931
-204.571
-204.734
-204.415
-203.611
-202.322
-200.552
-198.305
-195.592
-192.422
-188.81
-184.772
-180.324
-175.488
-170.284
-164.738
-158.875
-152.724
-146.315
-139.678
-132.848
-125.86
-118.747
-111.547
-104.296
-97.03
-89.786
-82.599
-75.505
-68.535
-61.724
-55.099
-48.692
-42.528
-36.631
-31.025
-25.73
-20.762
-16.139
-11.874
-7.977
-4.457
-1.322
1.423
3.778
5.739
7.31
8.495
9.298
9.728
9.794
9.51
8.889
7.947
6.702
5.172
3.378
1.342
-0.914
-3.367
-5.992
-8.765
-11.66
-14.652
-17.716
-20.828
-23.962
-27.095
-30.204
-33.266
-36.261
-39.167
-41.965
-44.638
-47.167
-49.537
-51.732
-53.738
-55.542
-57.133
-58.5
-59.635
-60.53
-61.181
-61.581
-61.73
-61.625
-61.268
-60.66
-59.804
-58.703
-57.364
-55.793
-53.998
-51.989
-49.774
-47.367
-44.778
-42.02
-39.107
-36.052
-32.867
-29.567
-26.165
-22.675
-19.112
-15.487
-11.815
-8.108
-4.379
-0.641
3.093
6.814
10.51
14.171
17.787
21.352
24.858
28.303
31.685
35.001
38.251
41.434
44.552
47.607
50.598
53.522
56.376
59.162
61.883
64.542
67.146
69.696
72.197
74.653
77.07
79.45
81.792
84.088
86.334
88.531
90.691
92.835
94.982
97.144
99.328
101.538
103.769
106.014
108.249
110.431
112.517
114.471
116.27
117.903
119.35
120.582
121.553
122.206
122.502
122.407
121.902
121.005
119.751
118.198
116.447
114.615
112.826
111.236
109.991
109.222
109.078
109.667
111.15
113.784
117.686
122.812
128.916
135.419
141.718
147.374
151.805
154.275
154.391
152.164
148.26
144.285
141.846
142.044
145.906
154.332
167.518
184.691
203.694
220.699
231.562
232.454
219.548
189.369
139.06
68.528
-18.589
-116.868
-219.765
-323.705
-429.567
-536.195
-638.837
-726.206
-779.724
-781.9
-721.608
-597.902
-419.369
-202.905
29.307
253.757
445.935
587.581
669.455
693.982
671.164
610.965
527.761
432.055
336.378
261.033
214.59
199.394
209.751
226.066
237.352
241.026
239.011
240.954
250.957
266.566
283.787
297.372
305.27
308.328
307.699
304.752
300.356
295.301
290.953
288.18
287.239
288.077
290.237
293.295
296.957
300.791
304.243
306.966
308.812
309.761
309.955
309.489
308.401
306.763
304.655
302.137
299.254
296.048
292.544
288.792
284.869
280.831
276.72
272.565
268.377
264.166
259.935
255.682
251.395
247.068
242.706
238.312
233.891
229.439
224.948
220.406
215.8
211.122
206.361
201.514
196.576
191.549
186.436
181.245
175.983
170.654
165.262
159.81
154.301
148.738
143.126
137.472
131.779
126.057
120.314
114.56
108.806
103.061
97.335
91.639
85.982
80.375
74.829
69.354
63.962
58.664
53.473
48.4
43.459
38.662
34.021
29.548
25.256
21.156
17.258
13.572
10.108
6.873
3.876
1.124
-1.378
-3.625
-5.611
-7.335
-8.794
-9.986
-10.911
-11.571
-11.967
-12.102
-11.98
-11.603
-10.976
-10.105
-8.994
-7.648
-6.075
-4.281
-2.274
-0.063
2.345
4.94
7.712
10.651
13.749
16.994
20.378
23.891
27.522
31.263
35.104
39.035
43.048
47.133
51.283
55.488
59.74
64.031
68.354
72.702
77.066
81.438
85.812
90.178
94.528
98.854
103.145
107.393
111.588
115.72
119.78
123.757
127.643
131.426
135.097
138.644
142.056
145.323
148.434
151.376
154.138
156.708
159.075
161.227
163.152
164.838
166.272
167.444
168.339
168.947
169.256
169.252
168.926
168.267
167.264
165.91
164.197
162.118
159.668
156.841
153.636
150.049
146.08
141.728
136.994
131.881
126.393
120.537
114.32
107.749
100.836
93.591
86.027
78.16
70.003
61.572
52.885
43.961
34.82
25.484
15.976
6.318
-3.463
-13.342
-23.291
-33.283
-43.288
-53.281
-63.232
-73.112
-82.891
-92.54
-102.031
-111.336
-120.424
-129.263
-137.824
-146.078
-153.996
-161.554
-168.724
-175.481
-181.805
-187.679
-193.087
-198.015
-202.447
-206.369
-209.768
-212.635
-214.96
-216.736
-217.957
-218.619
-218.728
-218.297
-217.336
-215.86
-213.875
-211.381
-208.389
-204.915
-200.975
-196.587
-191.778
-186.582
-181.053
-175.264
-169.276
-163.146
-156.914
-150.615
-144.295
-138.003
-131.789
-125.703
-119.777
-114.038
-108.529
-103.28
-98.284
-93.491
-88.809
-84.114
-79.331
-74.418
-69.322
-63.974
-58.279
-52.13
-45.445
-38.195
-30.33
-21.713
-12.289
-2.166
8.307
18.428
27.46
34.84
40.011
42.365
41.615
37.843
31.717
24.883
19.063
15.548
15.575
20.089
29.214
42.321
57.618
71.412
79.603
78.573
64.42
33.779
-15.446
-84.562
-171.362
-269.013
-370.64
-469.089
-561.22
-649.468
-730.503
-796.405
-832.387
-817.679
-744.097
-615.463
-444.52
-251.344
-50.224
148.153
330.911
482.548
586.746
634.411
626.276
573.1
490.742
392.169
289.576
195.647
119.793
68.147
40.877
29.434
24.849
22.402
21.608
26.99
41.233
62.436
86.035
106.069
119.327
125.69
126.148
122.274
115.355
106.33
96.676
88.08
81.4
76.854
74.243
72.995
72.627
72.796
72.978
72.567
71.247
68.855
65.33
60.823
55.46
49.341
42.672
35.62
28.292
20.808
13.258
5.704
-1.781
-9.159
-16.43
-23.573
-30.557
-37.342
-43.861
-50.086
-56.014
-61.649
-67.017
-72.131
-76.997
-81.642
-86.103
-90.408
-94.576
-98.612
-102.502
-106.245
-109.848
-113.319
-116.672
-119.91
-123.036
-126.054
-128.972
-131.796
-134.531
-137.179
-139.738
-142.21
-144.598
-146.907
-149.146
-151.318
-153.426
-155.473
-157.462
-159.393
-161.266
-163.078
-164.825
-166.501
-168.1
-169.617
-171.044
-172.373
-173.594
-174.699
-175.678
-176.521
-177.218
-177.757
-178.128
-178.32
-178.322
-178.126
-177.72
-177.096
-176.244
-175.158
-173.83
-172.254
-170.424
-168.338
-165.992
-163.384
-160.514
-157.383
-153.991
-150.342
-146.44
-142.292
-137.905
-133.287
-128.45
-123.405
-118.165
-112.744
-107.158
-101.424
-95.558
-89.58
-83.507
-77.36
-71.16
-64.927
-58.682
-52.447
-46.243
-40.091
-34.013
-28.03
-22.163
-16.432
-10.857
-5.457
-0.252
4.742
9.506
14.024
18.282
22.264
25.958
29.352
32.435
35.199
37.635
39.738
41.502
42.925
44.004
44.74
45.134
45.19
44.91
44.302
43.372
42.128
40.581
38.741
36.62
34.23
31.586
28.7
25.589
22.269
18.754
15.063
11.211
7.217
3.097
-1.131
-5.449
-9.842
-14.291
-18.781
-23.294
-27.815
-32.327
-36.816
-41.267
-45.664
-49.995
-54.247
-58.407
-62.464
-66.409
-70.232
-73.926
-77.482
-80.894
-84.156
-87.263
-90.209
-92.99
-95.603
-98.046
-100.315
-102.41
-104.329
-106.071
-107.637
-109.024
-110.233
-111.261
-112.108
-112.772
-113.251
-113.544
-113.649
-113.566
-113.295
-112.834
-112.185
-111.347
-110.319
-109.1
-107.685
-106.071
-104.253
-102.227
-99.989
-97.534
-94.859
-91.965
-88.853
-85.528
-81.991
-78.245
-74.292
-70.135
-65.781
-61.236
-56.504
-51.593
-46.517
-41.287
-35.922
-30.444
-24.864
-19.195
-13.444
-7.608
-1.69
4.299
10.352
16.46
22.605
28.769
34.92
41.004
46.98
52.802
58.423
63.809
68.912
73.677
78.057
81.987
85.408
88.31
90.677
92.499
93.787
94.525
94.74
94.548
94.071
93.461
92.875
92.403
92.206
92.531
93.509
95.178
97.39
99.671
101.583
102.868
103.172
102.106
99.478
95.226
89.883
84.746
81.044
79.7
81.47
86.871
96.137
109.083
124.259
138.851
149.744
153.91
148.379
130.327
97.067
46.148
-21.942
-103.102
-192.675
-285.383
-378.878
-475.525
-575.208
-673.453
-759.454
-815.572
-824.574
-775.182
-665.89
-502.174
-298.653
-78.889
132.834
307.852
424.127
478.009
475.234
431.28
364.89
285.618
201.184
121.122
52.607
2.933
-26.032
-41.68
-51.535
-60.434
-68.459
-69.628
-60.664
-42.662
-19.353
2.715
19.708
31.197
37.403
39.486
38.695
35.732
31.844
28.824
27.654
28.631
31.798
36.725
42.942
50.154
57.851
65.378
72.407
78.787
84.444
89.491
93.956
97.847
101.3
104.437
107.326
110.03
112.565
114.937
117.209
119.417
121.557
123.63
125.608
127.479
129.259
130.955
132.572
134.1
135.501
136.753
137.844
138.753
139.463
139.945
140.156
140.079
139.713
139.054
138.107
136.871
135.337
133.506
131.386
128.98
126.298
123.348
120.133
116.664
112.954
109.021
104.883
100.558
96.059
91.405
86.614
81.706
76.704
71.627
66.495
61.33
56.155
50.995
45.873
40.813
35.837
30.97
26.235
21.654
17.249
13.041
9.05
5.295
1.794
-1.437
-4.382
-7.028
-9.364
-11.38
-13.066
-14.418
-15.432
-16.107
-16.443
-16.443
-16.113
-15.46
-14.494
-13.226
-11.669
-9.837
-7.747
-5.418
-2.868
-0.12
2.805
5.882
9.087
12.394
15.777
19.209
22.663
26.112
29.53
32.89
36.164
39.327
42.354
45.221
47.904
50.383
52.636
54.645
56.395
57.871
59.062
59.956
60.547
60.83
60.802
60.462
59.811
58.855
57.599
56.053
54.227
52.134
49.789
47.21
44.415
41.425
38.262
34.948
31.509
27.969
24.355
20.694
17.013
13.34
9.703
6.129
2.645
-0.722
-3.947
-7.005
-9.874
-12.533
-14.961
-17.143
-19.061
-20.704
-22.061
-23.122
-23.883
-24.34
-24.492
-24.341
-23.891
-23.147
-22.118
-20.816
-19.253
-17.444
-15.405
-13.156
-10.715
-8.106
-5.351
-2.473
0.501
3.548
6.64
9.752
12.857
15.93
18.945
21.878
24.703
27.399
29.945
32.321
34.509
36.494
38.262
39.802
41.108
42.174
42.995
43.573
43.908
44.006
43.872
43.517
42.95
42.186
41.24
40.133
38.889
37.532
36.087
34.583
33.049
31.513
30.006
28.554
27.18
25.909
24.767
23.781
22.977
22.38
22.009
21.886
22.032
22.462
23.19
24.218
25.546
27.175
29.109
31.358
33.937
36.856
40.115
43.714
47.645
51.896
56.443
61.25
66.261
71.421
76.686
82.011
87.356
92.674
97.901
102.974
107.828
112.391
116.609
120.45
123.889
126.935
129.617
131.955
134.026
135.918
137.732
139.603
141.655
143.984
146.746
150.137
154.287
159.24
164.842
170.649
176.155
180.896
184.339
185.927
185.246
182.182
177.256
171.717
167.085
164.742
165.89
171.571
182.404
198.221
217.447
236.963
252.803
260.973
257.495
238.361
200.133
140.014
59.039
-37.435
-143.802
-253.566
-364.977
-480.908
-596.149
-700.593
-775.679
-797.041
-758.153
-663.351
-527.116
-370.763
-198.418
-13.461
175.807
356.207
497.344
576.445
588.021
541.56
463.063
377.114
299.525
236.593
188.037
150.598
118.773
90.838
65.428
43.088
28.596
23.66
28.234
40.384
55.071
68.266
77.427
81.347
80.322
74.841
65.383
52.73
37.787
21.881
6.525
-7.456
-19.789
-30.539
-40.077
-48.769
-56.885
-64.847
-73.174
-82.134
-91.819
-102.195
-113.074
-124.319
-135.867
-147.625
-159.488
-171.385
-183.24
-194.992
-206.608
-218.02
-229.163
-239.992
-250.457
-260.524
-270.177
-279.398
-288.182
-296.533
-304.449
-311.921
-318.94
-325.5
-331.602
-337.256
-342.476
-347.279
-351.679
-355.696
-359.35
-362.66
-365.642
-368.312
-370.681
-372.761
-374.568
-376.121
-377.439
-378.542
-379.449
-380.176
-380.741
-381.161
-381.45
-381.621
-381.686
-381.653
-381.532
-381.333
-381.064
-380.731
-380.34
-379.895
-379.398
-378.85
-378.252
-377.601
-376.894
-376.126
-375.292
-374.384
-373.395
-372.316
-371.137
-369.848
-368.438
-366.895
-365.21
-363.371
-361.366
-359.185
-356.82
-354.259
-351.496
-348.521
-345.328
-341.912
-338.268
-334.393
-330.285
-325.942
-321.365
-316.555
-311.515
-306.248
-300.758
-295.051
-289.134
-283.013
-276.698
-270.197
-263.522
-256.682
-249.69
-242.558
-235.301
-227.931
-220.464
-212.913
-205.293
-197.619
-189.906
-182.167
-174.418
-166.67
-158.938
-151.234
-143.571
-135.959
-128.409
-120.93
-113.532
-106.221
-99.004
-91.887
-84.875
-77.972
-71.181
-64.506
-57.948
-51.509
-45.189
-38.99
-32.909
-26.946
-21.098
-15.361
-9.733
-4.208
1.218
6.55
11.793
16.954
22.038
27.051
31.999
36.888
41.725
46.514
51.262
55.974
60.654
65.305
69.931
74.534
79.115
83.675
88.216
92.738
97.24
101.724
106.189
110.635
115.059
119.462
123.839
128.189
132.507
136.787
141.024
145.213
149.349
153.424
157.433
161.368
165.222
168.988
172.658
176.223
179.675
183.006
186.206
189.269
192.188
194.958
197.574
200.032
202.328
204.46
206.425
208.221
209.844
211.29
212.557
213.644
214.549
215.273
215.819
216.189
216.392
216.436
216.329
216.079
215.693
215.178
214.539
213.783
212.912
211.932
210.848
209.665
208.391
207.034
205.599
204.091
202.51
200.857
199.133
197.338
195.47
193.528
191.519
189.461
187.384
185.312
183.262
181.248
179.281
177.368
175.512
173.698
171.892
170.051
168.138
166.125
163.994
161.722
159.283
156.619
153.676
150.435
146.895
143.066
138.954
134.543
129.852
124.987
120.116
115.449
111.181
107.446
104.427
102.37
101.426
101.67
102.96
104.824
106.789
108.488
109.465
109.255
107.609
104.509
100.558
97.081
95.488
96.991
102.685
113.534
129.962
151.507
176.34
201.148
222.021
235.212
236.858
222.924
190.252
136.577
62.975
-25.144
-122.039
-221.561
-319.849
-417.851
-513.019
-597.174
-658.093
-677.15
-639.585
-543.553
-395.107
-207.601
-0.299
209.868
405.83
566.468
677.58
735.834
744.716
718.009
668.456
598.716
512.474
415.491
319.441
242.88
196.548
179.635
180.649
183.79
180.709
172.133
164.512
163.501
169.13
176.84
181.371
180.5
174.659
165.522
155.016
143.981
133.211
124.275
118.098
114.955
114.783
116.847
120.432
125.194
130.642
136.144
141.316
145.888
149.687
152.739
155.061
156.62
157.452
157.61
157.144
156.148
154.752
153.122
151.419
149.754
148.19
146.753
145.459
144.334
143.398
142.66
142.113
141.742
141.544
141.524
141.663
141.919
142.215
142.439
142.503
142.347
141.918
141.184
140.115
138.685
136.882
134.712
132.18
129.281
126.007
122.347
118.294
113.855
109.042
103.875
98.37
92.544
86.418
80.014
73.351
66.452
59.332
52.007
44.495
36.819
29.005
21.08
13.073
5.013
-3.068
-11.135
-19.157
-27.1
-34.933
-42.627
-50.149
-57.471
-64.562
-71.396
-77.944
-84.182
-90.085
-95.629
-100.792
-105.555
-109.901
-113.814
-117.282
-120.293
-122.839
-124.916
-126.52
-127.649
-128.304
-128.488
-128.205
-127.463
-126.272
-124.643
-122.59
-120.131
-117.285
-114.072
-110.516
-106.642
-102.475
-98.044
-93.377
-88.504
-83.456
-78.266
-72.965
-67.587
-62.165
-56.733
-51.325
-45.972
-40.708
-35.563
-30.569
-25.753
-21.143
-16.766
-12.645
-8.802
-5.259
-2.033
0.859
3.404
5.59
7.408
8.852
9.918
10.604
10.913
10.848
10.418
9.631
8.501
7.043
5.274
3.215
0.888
-1.684
-4.473
-7.453
-10.593
-13.863
-17.232
-20.667
-24.136
-27.605
-31.042
-34.416
-37.693
-40.845
-43.842
-46.657
-49.262
-51.633
-53.747
-55.583
-57.12
-58.341
-59.233
-59.781
-59.977
-59.812
-59.283
-58.389
-57.131
-55.513
-53.541
-51.226
-48.579
-45.613
-42.346
-38.795
-34.981
-30.926
-26.655
-22.193
-17.567
-12.802
-7.928
-2.971
2.042
7.084
12.13
17.156
22.139
27.057
31.889
36.614
41.215
45.677
49.984
54.123
58.084
61.86
65.447
68.849
72.067
75.106
77.973
80.68
83.239
85.662
87.962
90.147
92.229
94.225
96.151
98.03
99.881
101.723
103.576
105.464
107.405
109.416
111.506
113.678
115.938
118.3
120.778
123.403
126.198
129.179
132.36
135.75
139.345
143.134
147.092
151.169
155.322
159.512
163.7
167.864
171.971
175.978
179.842
183.505
186.91
190.006
192.764
195.186
197.304
199.171
200.854
202.436
204.017
205.73
207.724
210.135
213.101
216.714
221.106
226.525
233.083
240.717
249.131
257.658
265.599
272.456
277.627
280.321
280.176
277.289
272.386
267.3
263.894
263.441
267.23
276.421
291.122
310.286
331.645
350.979
363.407
364.546
349.931
315.055
258.059
180.858
86.608
-19.136
-132.313
-255.015
-386.484
-519.157
-638.864
-719.838
-738.471
-688.362
-575.577
-421.335
-250.268
-70.892
112.734
297.626
477.962
631.67
737.792
787.305
779.471
727.129
646.724
548.995
445.578
349.769
272.141
220.161
194.133
183.959
179.063
174.163
168.811
167.774
174.17
186.104
198.917
207.515
209.453
204.83
194.928
181.515
165.952
149.672
134.505
121.607
111.405
103.911
98.675
95.18
92.964
91.417
89.823
87.749
85.053
81.744
77.946
73.753
69.185
64.296
59.231
54.091
48.925
43.782
38.675
33.644
28.793
24.193
19.868
15.828
12.054
8.518
5.225
2.165
-0.688
-3.347
-5.846
-8.22
-10.489
-12.683
-14.843
-17.009
-19.23
-21.556
-24.012
-26.621
-29.405
-32.375
-35.55
-38.946
-42.572
-46.436
-50.55
-54.92
-59.555
-64.461
-69.636
-75.079
-80.784
-86.741
-92.939
-99.367
-106.009
-112.847
-119.862
-127.032
-134.335
-141.746
-149.238
-156.782
-164.349
-171.905
-179.42
-186.86
-194.192
-201.381
-208.393
-215.194
-221.751
-228.029
-233.997
-239.622
-244.873
-249.723
-254.141
-258.103
-261.583
-264.559
-267.011
-268.922
-270.277
-271.065
-271.277
-270.907
-269.953
-268.416
-266.299
-263.607
-260.351
-256.542
-252.194
-247.326
-241.956
-236.107
-229.804
-223.073
-215.943
-208.446
-200.613
-192.479
-184.078
-175.446
-166.623
-157.645
-148.553
-139.385
-130.182
-120.983
-111.829
-102.758
-93.809
-85.018
-76.421
-68.053
-59.947
-52.132
-44.638
-37.491
-30.715
-24.332
-18.362
-12.821
-7.724
-3.082
1.095
4.801
8.033
10.789
13.07
14.881
16.228
17.119
17.565
17.578
17.176
16.374
15.193
13.655
11.783
9.601
7.138
4.419
1.473
-1.67
-4.982
-8.434
-11.996
-15.639
-19.334
-23.054
-26.77
-30.457
-34.09
-37.642
-41.094
-44.422
-47.608
-50.633
-53.482
-56.138
-58.589
-60.824
-62.833
-64.607
-66.139
-67.424
-68.459
-69.243
-69.775
-70.059
-70.098
-69.898
-69.466
-68.811
-67.942
-66.87
-65.604
-64.159
-62.545
-60.776
-58.865
-56.824
-54.666
-52.402
-50.045
-47.607
-45.096
-42.52
-39.888
-37.206
-34.481
-31.715
-28.911
-26.068
-23.186
-20.265
-17.304
-14.298
-11.245
-8.14
-4.982
-1.769
1.502
4.836
8.239
11.72
15.285
18.942
22.699
26.562
30.541
34.637
38.844
43.162
47.585
52.118
56.774
61.556
66.463
71.495
76.645
81.899
87.238
92.621
97.988
103.288
108.475
113.511
118.383
123.051
127.477
131.619
135.418
138.837
141.854
144.426
146.513
148.127
149.32
150.19
150.895
151.531
152.152
152.833
153.658
154.726
156.139
157.976
160.273
163.114
166.708
171.13
176.248
181.731
186.938
191.159
193.834
194.325
191.783
185.878
176.935
165.614
153.33
141.859
132.621
126.968
126.553
130.639
135.667
139.934
141.637
139.894
137.749
130.504
106.713
57.91
-24.003
-136.786
-265.254
-398.23
-528.977
-652.687
-767.837
-864.477
-923.281
-929.235
-876.427
-769.778
-624.173
-452.369
-262.445
-64.67
125.956
286.912
397.096
447.019
441.315
398.288
335.899
268.204
206.083
152.291
110.447
80.91
57.183
36.313
15.252
-6.267
-22.592
-31.51
-32.654
-26.425
-16.348
-4.849
6.411
15.393
21.523
24.934
25.712
24.105
20.368
14.762
8.15
1.862
-3.334
-7.211
-9.862
-11.662
-12.855
-13.536
-14.022
-14.808
-16.196
-18.33
-21.198
-24.597
-28.409
-32.594
-37.081
-41.795
-46.659
-51.595
-56.551
-61.503
-66.424
-71.297
-76.105
-80.827
-85.458
-89.998
-94.458
-98.87
-103.252
-107.615
-111.966
-116.304
-120.637
-124.984
-129.364
-133.794
-138.288
-142.859
-147.52
-152.288
-157.176
-162.188
-167.328
-172.592
-177.981
-183.498
-189.146
-194.927
-200.84
-206.882
-213.05
-219.34
-225.744
-232.253
-238.853
-245.53
-252.269
-259.055
-265.872
-272.703
-279.529
-286.331
-293.092
-299.789
-306.404
-312.914
-319.296
-325.529
-331.59
-337.458
-343.111
-348.529
-353.69
-358.577
-363.171
-367.455
-371.414
-375.032
-378.297
-381.197
-383.721
-385.863
-387.614
-388.972
-389.932
-390.496
-390.665
-390.442
-389.832
-388.843
-387.481
-385.757
-383.681
-381.266
-378.525
-375.472
-372.124
-368.498
-364.611
-360.482
-356.13
-351.576
-346.84
-341.942
-336.903
-331.743
-326.483
-321.144
-315.747
-310.312
-304.858
-299.406
-293.974
-288.579
-283.24
-277.971
-272.788
-267.704
-262.732
-257.885
-253.173
-248.605
-244.19
-239.937
-235.852
-231.94
-228.207
-224.656
-221.289
-218.108
-215.112
-212.301
-209.673
-207.226
-204.957
-202.861
-200.932
-199.166
-197.556
-196.094
-194.772
-193.582
-192.515
-191.562
-190.713
-189.96
-189.293
-188.705
-188.186
-187.729
-187.327
-186.973
-186.661
-186.385
-186.14
-185.919
-185.72
-185.539
-185.372
-185.216
-185.071
-184.936
-184.809
-184.693
-184.589
-184.499
-184.425
-184.372
-184.343
-184.345
-184.382
-184.461
-184.589
-184.773
-185.02
-185.34
-185.738
-186.223
-186.801
-187.478
-188.258
-189.145
-190.143
-191.254
-192.479
-193.816
-195.265
-196.821
-198.483
-200.245
-202.101
-204.042
-206.06
-208.144
-210.281
-212.457
-214.656
-216.857
-219.037
-221.174
-223.244
-225.227
-227.101
-228.847
-230.445
-231.874
-233.117
-234.16
-234.985
-235.578
-235.915
-235.976
-235.751
-235.236
-234.439
-233.369
-232.027
-230.406
-228.503
-226.306
-223.804
-220.993
-217.855
-214.369
-210.532
-206.354
-201.87
-197.147
-192.228
-187.131
-181.86
-176.401
-170.79
-165.116
-159.474
-153.956
-148.632
-143.515
-138.674
-134.255
-130.291
-126.676
-123.114
-119.206
-114.773
-109.928
-104.841
-99.535
-94.006
-88.355
-83.105
-79.01
-76.489
-75.526
-75.706
-76.718
-78.505
-80.992
-83.627
-85.5
-85.573
-82.849
-77.022
-67.97
-55.322
-38.683
-17.96
6.459
31.509
51.68
62.899
62.911
54.127
41.859
25.932
-0.974
-51.438
-136.157
-255.854
-398.827
-546.667
-686.748
-811.899
-917.554
-1000.133
-1045.733
-1037.689
-969.707
-841.774
-664.384
-458.049
-240.101
-29.177
150.667
283.38
360.94
382.01
362.501
319.834
262.649
202.539
141.47
78.2
20.378
-32.695
-80.261
-118.066
-148.757
-170.292
-180.783
-182.503
-176.569
-166.296
-155.742
-147.731
-144.033
-144.858
-149.725
-157.729
-167.66
-178.614
-189.376
-198.274
-204.462
-207.692
-208.047
-206.241
-202.975
-198.675
-193.921
-189.39
-185.488
-182.516
-180.674
-179.906
-180.17
-181.475
-183.756
-186.953
-190.998
-195.759
-201.062
-206.72
-212.548
-218.415
-224.238
-229.941
-235.458
-240.725
-245.679
-250.299
-254.581
-258.513
-262.078
-265.251
-268.03
-270.449
-272.579
-274.503
-276.289
-277.979
-279.604
-281.192
-282.765
-284.341
-285.924
-287.501
-289.061
-290.608
-292.149
-293.697
-295.258
-296.829
-298.402
-299.968
-301.522
-303.061
-304.58
-306.072
-307.532
-308.957
-310.349
-311.711
-313.041
-314.335
-315.584
-316.779
-317.91
-318.966
-319.933
-320.795
-321.539
-322.149
-322.611
-322.911
-323.036
-322.969
-322.698
-322.209
-321.488
-320.523
-319.299
-317.805
-316.03
-313.961
-311.59
-308.906
-305.901
-302.567
-298.898
-294.888
-290.535
-285.836
-280.788
-275.393
-269.651
-263.566
-257.143
-250.389
-243.313
-235.923
-228.232
-220.253
-212
-203.488
-194.734
-185.755
-176.568
-167.191
-157.645
-147.948
-138.12
-128.182
-118.153
-108.055
-97.909
-87.736
-77.556
-67.389
-57.257
-47.179
-37.174
-27.262
-17.461
-7.787
1.743
11.115
20.314
29.327
38.145
46.756
55.154
63.33
71.28
78.999
86.485
93.738
100.756
107.542
114.098
120.429
126.539
132.436
138.126
143.618
148.921
154.044
158.997
163.792
168.441
172.955
177.345
181.625
185.806
189.903
193.927
197.89
201.804
205.68
209.53
213.365
217.193
221.023
224.863
228.721
232.605
236.52
240.473
244.469
248.512
252.606
256.753
260.957
265.217
269.534
273.907
278.335
282.82
287.36
291.954
296.601
301.299
306.048
310.848
315.697
320.593
325.536
330.524
335.558
340.64
345.768
350.941
356.16
361.429
366.753
372.138
377.586
383.101
388.691
394.364
400.128
405.988
411.945
418.004
424.169
430.453
436.867
443.423
450.126
456.984
464.008
471.211
478.603
486.182
493.934
501.839
509.891
518.101
526.489
535.064
543.837
552.811
561.998
571.422
581.089
590.984
601.067
611.299
621.663
632.167
642.835
653.687
664.721
675.894
687.143
698.403
709.568
720.536
731.193
741.407
751.118
760.281
768.858
776.839
784.18
790.826
796.765
801.902
806.049
809.273
811.834
814.026
816.338
818.977
821.82
825.101
829.159
833.821
838.52
842.33
844.045
843.411
841.068
837.229
832.173
826.722
822.197
820.906
825.312
836.266
853.226
875.31
901.036
928.507
954.528
973.881
981.642
974.085
950.225
912.337
860.705
794.53
712.955
613.444
502.411
393.337
298.894
233.477
198.975
184.678
180.66
174.748
162.29
