Name,Kaushik Vada
Date of Birth,"Mar 17, 2005"
Recorded Date,2024-05-25 16:52:55 -0800
Classification,Poor Recording
Symptoms,
Software Version,1.90
Device,"Watch6,15"
Sample Rate,512 hertz


Lead,Lead I
Unit,µV

747.621
1003.963
1175.458
1244.598
1227.659
1157.811
1067.953
978.628
894.46
814.796
737.29
661.716
592.446
532.187
483.063
446.632
421.896
405.948
393.828
380.567
361.893
337.606
311.34
285.51
262.454
241.858
220.062
195.319
166.675
134.017
99.256
63.791
28.379
-6.181
-39.425
-71.13
-100.921
-128.351
-153.314
-175.958
-196.556
-215.64
-233.84
-251.508
-268.895
-286.298
-303.831
-321.546
-339.474
-357.467
-375.292
-392.81
-409.932
-426.585
-442.749
-458.384
-473.429
-487.852
-501.632
-514.748
-527.171
-538.83
-549.643
-559.542
-568.459
-576.36
-583.252
-589.114
-593.912
-597.753
-600.764
-602.906
-604.217
-604.759
-604.344
-603.614
-603.199
-602.285
-600.656
-596.803
-588.915
-579.109
-568.806
-560.088
-555.798
-553.479
-551.047
-547.081
-539.212
-529.155
-518.657
-508.12
-498.621
-489.573
-480.213
-470.709
-460.981
-451.096
-441.226
-431.283
-421.203
-411.036
-400.816
-390.567
-380.331
-370.155
-360.085
-350.171
-340.459
-330.96
-321.673
-312.606
-303.757
-295.136
-286.763
-278.652
-270.812
-263.251
-255.97
-248.959
-242.202
-235.676
-229.349
-223.195
-217.204
-211.386
-205.766
-200.382
-195.273
-190.457
-185.935
-181.709
-177.781
-174.163
-170.862
-167.898
-165.293
-163.076
-161.294
-159.984
-159.165
-158.835
-158.969
-159.527
-160.47
-161.794
-163.502
-165.595
-168.067
-170.892
-174.034
-177.447
-181.075
-184.84
-188.639
-192.372
-195.935
-199.239
-202.199
-204.736
-206.756
-208.13
-208.719
-208.379
-206.988
-204.448
-200.682
-195.636
-189.27
-181.573
-172.564
-162.263
-150.711
-137.964
-124.078
-109.124
-93.193
-76.391
-58.845
-40.706
-22.099
-3.14
16.072
35.463
54.95
74.468
93.964
113.386
132.71
151.943
171.073
190.109
209.082
227.931
246.566
264.873
282.631
299.673
315.887
331.09
345.139
358.099
370.185
381.809
393.504
405.537
417.986
430.941
444.348
457.891
470.939
482.453
491.294
496.675
498.115
495.236
487.855
476.131
460.698
442.753
423.693
404.789
387.196
372.122
360.798
354.163
352.714
356.481
365.289
378.945
397.177
419.406
444.706
472.229
501.376
531.662
562.543
593.249
622.842
650.557
675.995
698.763
718.353
734.381
746.727
755.738
762.268
767.332
771.75
776.218
781.476
788.083
796.102
805.189
813.96
819.845
821.331
817.678
809.026
798.073
785.284
768.336
745.344
712.101
667.46
617.347
568.15
528.978
510.289
515.688
546.878
603.646
679.216
768.171
866.261
966.622
1065.463
1157.011
1229.73
1272.258
1272.135
1220.101
1117.136
971.716
797.97
613.555
433.779
269.812
131.427
25.054
-47.45
-87.23
-102.723
-107.533
-113.824
-130.574
-159.161
-193.278
-225.023
-248.726
-263.161
-271.774
-279.546
-289.5
-302.206
-316.472
-330.337
-342.899
-354.471
-365.729
-377.478
-390.043
-403.146
-416.407
-429.417
-441.95
-453.972
-465.421
-476.237
-486.504
-496.459
-506.472
-517.044
-528.426
-540.614
-553.559
-567.109
-581.087
-595.354
-609.675
-623.72
-637.301
-650.291
-662.555
-674.04
-684.65
-694.267
-702.866
-710.472
-717.004
-722.384
-726.733
-730.118
-732.567
-734.318
-734.925
-733.98
-732.271
-730.106
-729.063
-730.776
-733.969
-737.991
-740.134
-737.523
-731.046
-720.916
-710.519
-703.463
-700.108
-701.541
-704.992
-707.419
-708.016
-705.219
-700.542
-695.753
-691.164
-687.64
-684.689
-681.635
-678.61
-675.525
-672.456
-669.576
-666.799
-664.063
-661.402
-658.822
-656.334
-653.959
-651.714
-649.616
-647.699
-645.993
-644.501
-643.219
-642.141
-641.264
-640.586
-640.111
-639.838
-639.761
-639.866
-640.126
-640.516
-641.025
-641.652
-642.402
-643.266
-644.211
-645.213
-646.286
-647.492
-648.862
-650.34
-651.757
-652.94
-653.845
-654.556
-655.185
-655.724
-656.13
-656.532
-657.344
-659.099
-662.043
-666.047
-670.756
-675.773
-680.796
-685.53
-689.181
-691.213
-692.069
-691.527
-689.26
-684.34
-673.97
-658.729
-642.469
-629.365
-624.977
-629.803
-638.764
-647.508
-651.695
-650.315
-646.419
-641.589
-636.609
-631.634
-625.571
-618.365
-610.491
-602.096
-593.431
-584.614
-575.658
-566.663
-557.626
-548.352
-538.667
-528.508
-517.878
-506.84
-495.442
-483.642
-471.374
-458.637
-445.433
-431.762
-417.697
-403.278
-388.46
-373.337
-358.154
-342.931
-327.596
-312.243
-296.604
-280.902
-266.502
-253.245
-239.818
-224.377
-202.621
-173.397
-140.937
-110.426
-89.343
-81.848
-82.637
-83.927
-77.773
-58.227
-28.645
3.606
33.098
55.285
70.801
83.984
97.029
111.443
127.538
143.748
159.529
174.986
189.983
204.736
219.347
233.575
247.301
260.612
273.56
286.053
298.117
309.782
320.845
331.921
343.588
355.026
365.993
375.013
380.314
383.869
387
391.661
400.546
411.296
421.913
431.031
436.388
439.624
442.404
445.11
448.762
452.788
456.454
459.913
463.084
466.026
468.904
471.626
474.122
476.425
478.549
480.489
482.252
483.848
485.281
486.567
487.724
488.742
489.614
490.336
490.907
491.32
491.572
491.656
491.562
491.285
490.819
490.155
489.286
488.203
486.897
485.358
483.581
481.557
479.281
476.748
473.954
470.895
467.571
463.982
460.128
456.01
451.63
446.991
442.096
436.951
431.561
425.93
420.066
413.975
407.669
401.16
394.462
387.591
380.563
373.396
366.111
358.729
351.268
343.749
336.191
328.618
321.06
313.546
306.1
298.748
291.514
284.414
277.465
270.665
263.999
257.461
251.04
244.738
238.571
232.531
226.613
220.823
215.156
209.611
204.191
198.839
193.497
188.209
183.035
178.075
173.45
169.172
165.277
161.899
159.092
156.691
154.427
151.945
148.971
145.504
141.467
136.828
131.862
127.174
123.687
121.735
120.767
120.465
121.285
125.592
136.743
155.152
177.204
195.358
201.147
190.691
166.167
134.591
103.293
76.045
52.846
31.089
9.341
-11.394
-29.139
-41.63
-47.655
-47.201
-40.815
-29.41
-14.251
3.043
20.931
37.982
52.615
63.268
68.883
68.911
63.397
52.911
38.012
19.538
-1.033
-21.826
-41.205
-58.027
-71.657
-81.705
-87.635
-89.236
-86.947
-81.728
-74.654
-66.511
-57.741
-48.776
-40.276
-32.684
-26.045
-20.034
-14.065
-7.632
-0.41
7.944
17.878
29.605
42.995
57.589
72.624
87.191
100.341
111.144
118.65
122.133
121.226
115.925
106.559
93.812
78.635
61.966
44.744
27.821
11.795
-3.02
-16.536
-29.006
-40.99
-52.912
-65.069
-77.726
-90.904
-104.298
-117.463
-129.694
-140.025
-147.815
-152.614
-153.881
-151.401
-145.484
-136.676
-125.678
-113.484
-100.898
-88.517
-77.949
-70.684
-66.563
-65.62
-66.594
-66.9
-66.184
-63.55
-58.603
-53.867
-50.716
-48.898
-44.479
-27.368
13.894
85.919
187.416
308.804
437.232
565.652
691.563
812.541
922.726
1003.685
1033.235
997.866
894.552
741.205
566.692
395.012
246.021
124.878
27.881
-46.155
-99.772
-130.622
-137.449
-126.338
-105.835
-88.605
-82.096
-84.607
-89.806
-87.103
-70.692
-42.109
-6.377
29.66
62.798
94.899
129.559
169.09
211.359
248.601
272.778
279.137
268.939
251.976
237.604
232.006
237.275
247.237
256.847
263.753
266.03
266.258
265.992
264.639
262.63
259.232
253.93
247.384
239.975
232.217
224.85
218.372
213.046
208.976
206.148
204.508
204.017
204.667
206.356
208.81
211.799
215.258
219.141
223.445
228.242
233.507
239.312
246.042
253.991
263.137
273.324
284.133
294.848
304.898
313.666
320.25
324.014
324.768
322.562
317.905
311.712
304.706
297.579
291.21
286.165
282.68
280.821
280.246
280.377
280.888
281.55
282.062
282.299
282.239
281.892
281.474
281.249
281.266
281.463
281.793
282.185
282.484
282.55
282.391
281.94
281.16
280.308
278.763
275.945
272.852
269.818
268.589
271.253
275.597
280.199
282.923
280.777
276.6
272.814
271.097
274.175
280.241
287.424
295.303
302.68
310.165
318.536
327.557
337.273
347.553
358.132
369.003
380.121
391.3
402.357
413.111
423.327
432.772
441.232
448.51
454.452
458.982
462.062
463.638
463.652
462.043
458.743
453.72
446.975
438.543
428.494
416.949
404.104
390.183
375.433
360.106
344.414
328.534
312.615
296.809
281.281
266.223
251.852
238.378
226.002
214.908
205.256
197.149
190.616
185.637
182.149
180.07
179.343
179.933
181.814
184.966
189.369
194.965
201.664
209.345
217.848
226.996
236.601
246.513
256.627
266.868
277.193
287.561
297.912
308.167
318.229
327.963
337.204
345.799
353.606
360.529
366.532
371.604
375.756
378.988
381.28
382.597
382.906
382.176
380.378
377.524
373.651
368.85
363.279
357.103
350.508
343.659
336.675
329.661
322.725
315.97
309.511
303.483
298.003
293.19
289.177
286.051
283.877
282.68
282.421
283.043
284.466
286.597
289.364
292.698
296.509
300.718
305.233
309.931
314.717
319.488
324.112
328.493
332.546
336.207
339.471
342.323
344.743
346.785
348.515
350.026
351.444
352.765
353.937
355.01
356.038
356.994
357.817
358.204
357.947
357.305
356.464
355.609
354.43
351.869
348.168
344.646
343.297
347.212
356.041
366.325
374.586
376.001
370.103
361.19
352.536
348.042
348.648
351.062
353.312
354.017
352.675
350.771
349.066
347.455
345.951
344.333
342.49
340.65
338.916
337.247
335.645
334.139
332.731
331.432
330.248
329.143
328.106
327.157
326.301
325.546
324.902
324.372
323.961
323.675
323.516
323.482
323.571
323.781
324.112
324.558
325.117
325.783
326.55
327.413
328.363
329.392
330.487
331.637
332.83
334.055
335.299
336.55
337.796
339.024
340.219
341.371
342.466
343.492
344.434
345.281
346.019
346.636
347.121
347.464
347.655
347.683
347.54
347.217
346.707
346.004
345.105
344.003
342.695
341.18
339.456
337.525
335.39
333.052
330.513
327.774
324.84
321.718
318.417
314.944
311.309
307.518
303.581
299.51
295.32
291.024
286.635
282.162
277.616
273.02
268.398
263.779
259.189
254.646
250.17
245.775
241.491
237.35
233.377
229.602
226.048
222.717
219.631
216.822
214.294
212.061
210.108
208.318
206.645
205.152
203.892
202.967
202.438
202.161
202.078
202.412
203.29
204.498
205.63
206.175
205.705
204.83
204.885
205.704
206.607
206.362
201.709
192.797
183.143
176.411
179.785
197.03
224.214
255.13
279.367
288.223
281.642
264.236
244.208
229.013
220.831
218.207
217.705
217.021
215.89
214.992
215.598
217.928
221.271
225.079
228.673
231.569
233.726
234.984
235.175
234.513
233.381
232.31
232.047
233.001
235.158
238.526
242.954
247.739
251.813
253.807
251.987
245.777
235.874
221.698
202.396
176.746
142.29
101.222
59.117
21.144
-6.212
-21.83
-30.204
-34.97
-40.722
-49.389
-58.63
-67.288
-74.895
-81.813
-89.926
-100.315
-111.956
-121.846
-126.841
-123.896
-111.452
-91.27
-64.156
-28.951
16.244
76.953
157.722
258.487
378.414
512.763
652.607
787.189
899.151
967.805
976.713
918.172
799.292
640.715
468.383
306.578
171.148
67.991
-3.009
-46.988
-68.565
-69.886
-55.849
-29.977
1.202
26.489
41.227
43.14
34.577
24.945
18.025
14.31
12.749
7.977
-1.823
-14.953
-29.811
-43.374
-53.385
-59.753
-62.662
-62.432
-59.887
-55.869
-50.887
-45.62
-40.992
-37.285
-35.173
-36.011
-39.381
-44.015
-47.98
-47.638
-42.918
-37.045
-33.307
-36.432
-46.676
-59.446
-71.168
-77.999
-79.259
-78.286
-77.072
-76.978
-78.384
-79.882
-80.862
-81.373
-81.355
-81.007
-80.36
-79.227
-77.576
-75.455
-72.868
-69.83
-66.38
-62.576
-58.516
-54.283
-49.912
-45.407
-40.766
-36.005
-31.146
-26.207
-21.202
-16.141
-11.03
-5.88
-0.708
4.487
9.711
14.985
20.342
25.804
31.376
37.066
42.877
48.811
54.877
61.072
67.38
73.791
80.288
86.854
93.47
100.108
106.724
113.284
119.748
126.084
132.269
138.273
144.066
149.624
154.915
159.925
164.653
169.098
173.264
177.171
180.839
184.294
187.584
190.731
193.741
196.618
199.341
201.894
204.261
206.41
208.31
209.92
211.179
212.024
212.387
212.172
211.287
209.633
207.093
203.581
199.041
193.422
186.702
178.869
169.911
159.836
148.659
136.4
123.09
108.773
93.504
77.364
60.451
42.866
24.736
6.173
-12.73
-31.872
-51.159
-70.507
-89.824
-109.008
-127.966
-146.585
-164.738
-182.317
-199.219
-215.356
-230.664
-245.091
-258.595
-271.149
-282.727
-293.312
-302.906
-311.509
-319.134
-325.82
-331.614
-336.592
-340.865
-344.527
-347.668
-350.383
-352.74
-354.804
-356.637
-358.283
-359.777
-361.152
-362.429
-363.627
-364.767
-365.851
-366.87
-367.802
-368.601
-369.233
-369.676
-369.908
-369.921
-369.715
-369.29
-368.664
-367.865
-366.915
-365.845
-364.683
-363.452
-362.181
-360.905
-359.661
-358.494
-357.442
-356.53
-355.786
-355.227
-354.865
-354.711
-354.766
-355.023
-355.477
-356.121
-356.949
-357.955
-359.131
-360.466
-361.949
-363.565
-365.303
-367.149
-369.092
-371.12
-373.22
-375.381
-377.591
-379.842
-382.123
-384.423
-386.73
-389.032
-391.318
-393.575
-395.794
-397.964
-400.073
-402.113
-404.076
-405.953
-407.739
-409.427
-411.011
-412.487
-413.852
-415.101
-416.232
-417.244
-418.135
-418.904
-419.551
-420.075
-420.476
-420.756
-420.914
-420.951
-420.868
-420.667
-420.347
-419.912
-419.362
-418.698
-417.921
-417.034
-416.035
-414.928
-413.715
-412.396
-410.975
-409.451
-407.828
-406.107
-404.29
-402.379
-400.375
-398.281
-396.096
-393.824
-391.468
-389.031
-386.516
-383.925
-381.258
-378.519
-375.709
-372.832
-369.892
-366.891
-363.833
-360.724
-357.57
-354.379
-351.162
-347.921
-344.665
-341.397
-338.121
-334.851
-331.6
-328.382
-325.216
-322.103
-319.041
-316.043
-313.115
-310.265
-307.516
-304.844
-302.225
-299.713
-297.349
-295.177
-293.268
-291.553
-289.939
-288.463
-287.149
-285.886
-284.617
-283.201
-281.455
-279.559
-277.719
-275.935
-274.256
-272.813
-271.648
-270.986
-271.087
-271.719
-272.638
-273.797
-275.065
-276.364
-277.69
-278.826
-279.546
-280.013
-280.377
-280.687
-281.054
-281.47
-281.886
-282.404
-283.116
-283.945
-284.828
-285.72
-286.547
-287.326
-288.088
-288.802
-289.456
-290.054
-290.59
-291.081
-291.546
-291.977
-292.369
-292.704
-292.952
-293.109
-293.165
-293.117
-292.985
-292.738
-292.329
-291.787
-291.105
-290.296
-289.415
-288.392
-287.139
-285.697
-284.072
-282.174
-280.016
-277.479
-274.371
-270.79
-266.757
-262.21
-257.297
-252.255
-247.265
-242.738
-239.084
-236.393
-234.968
-234.977
-236.172
-238.193
-240.514
-242.439
-243.438
-243.127
-240.886
-236.402
-229.781
-221.331
-211.727
-201.617
-191.406
-181.538
-172.6
-164.956
-158.76
-153.942
-150.105
-146.999
-144.568
-142.709
-141.301
-140.271
-139.567
-139.255
-139.54
-140.522
-142.185
-144.473
-147.26
-150.403
-153.767
-157.188
-160.475
-163.477
-166.071
-168.14
-169.687
-170.763
-171.488
-172.11
-172.854
-173.877
-175.389
-177.597
-180.526
-184.119
-188.022
-191.458
-193.685
-193.99
-191.622
-186.085
-177.232
-165.181
-150.73
-135.372
-120.836
-109.246
-102.772
-103.204
-111.239
-126.061
-145.842
-167.821
-190.527
-214.614
-240.173
-265.776
-285.087
-285.658
-255.29
-186.617
-81.547
47.915
187.313
325.956
459.182
585.75
701
793.189
845.322
843.331
783.462
673.101
530.371
374.936
220.536
78.044
-48.559
-157.261
-241.939
-300.313
-330.113
-331.219
-312.109
-281.621
-250.327
-227.976
-216.15
-213.048
-213.369
-211.369
-206.345
-200.085
-195.845
-195.776
-198.934
-202.806
-204.598
-202.845
-197.318
-188.376
-176.824
-163.431
-148.981
-134.504
-120.904
-108.701
-98.365
-90.224
-84.306
-80.448
-78.422
-78.039
-79.199
-81.974
-86.196
-91.271
-96.677
-102.163
-107.501
-112.276
-115.876
-117.482
-116.658
-113.764
-109.257
-103.475
-96.77
-89.432
-82.152
-75.312
-68.229
-60.98
-54.178
-49.467
-50.475
-56.873
-64.705
-69.715
-65.967
-53.215
-37.089
-21.936
-12.313
-9.008
-8.067
-7.191
-4.943
-0.831
3.736
8.197
12.749
17.399
22.34
27.634
33.121
38.761
44.592
50.6
56.748
63.031
69.476
76.109
82.968
90.063
97.361
104.839
112.486
120.285
128.221
136.279
144.434
152.66
160.937
169.238
177.542
185.825
194.06
202.218
210.271
218.188
225.944
233.509
240.857
247.956
254.779
261.298
267.486
273.316
278.766
283.814
288.441
292.631
296.367
299.633
302.413
304.697
306.479
307.757
308.53
308.796
308.555
307.81
306.571
304.847
302.651
299.988
296.861
293.276
289.245
284.788
279.93
274.691
269.08
263.098
256.745
250.041
243.023
235.735
228.209
220.461
212.494
204.342
196.091
187.806
179.484
171.029
162.314
153.306
144.131
134.976
125.931
117.061
108.497
100.579
93.798
88.5
84.656
81.888
79.802
78.056
76.359
74.223
70.903
65.716
58.417
49.393
39.325
28.934
18.736
9.229
1.137
-4.766
-7.953
-8.527
-7.091
-4.454
-1.186
2.362
5.776
8.57
10.254
10.674
10.111
9.09
8.002
7.004
6.184
5.635
5.548
6.053
7.085
8.431
9.911
11.45
13.052
14.758
16.554
18.391
20.255
22.162
24.135
26.186
28.3
30.439
32.572
34.682
36.762
38.809
40.818
42.776
44.673
46.497
48.243
49.908
51.49
52.983
54.385
55.689
56.895
58
59.004
59.907
60.704
61.389
61.958
62.409
62.74
62.951
63.04
63.006
62.85
62.572
62.173
61.656
61.022
60.274
59.415
58.449
57.38
56.213
54.955
53.609
52.182
50.68
49.11
47.476
45.787
44.048
42.267
40.452
38.609
36.747
34.873
32.995
31.122
29.262
27.422
25.611
23.838
22.11
20.435
18.821
17.276
15.806
14.418
13.118
11.912
10.804
9.799
8.901
8.113
7.437
6.876
6.432
6.105
5.896
5.805
5.831
5.975
6.234
6.606
7.09
7.681
8.379
9.178
10.075
11.065
12.144
13.306
14.545
15.856
17.231
18.663
20.146
21.672
23.234
24.824
26.435
28.06
29.691
31.321
32.942
34.549
36.134
37.692
39.215
40.698
42.136
43.524
44.857
46.13
47.339
48.48
49.549
50.541
51.453
52.281
53.022
53.674
54.233
54.698
55.066
55.338
55.513
55.589
55.567
55.447
55.229
54.914
54.503
53.997
53.398
52.708
51.93
51.066
50.119
49.092
47.988
46.812
45.565
44.251
42.874
41.438
39.948
38.408
36.823
35.2
33.545
31.866
30.17
28.465
26.758
25.056
23.365
21.692
20.042
18.419
16.831
15.284
13.787
12.348
10.978
9.685
8.48
7.372
6.368
5.476
4.7
4.042
3.506
3.095
2.818
2.684
2.699
2.862
3.175
3.633
4.224
4.935
5.737
6.602
7.51
8.443
9.391
10.357
11.335
12.325
13.326
14.326
15.315
16.291
17.241
18.163
19.067
19.969
20.909
21.936
23.076
24.339
25.729
27.216
28.773
30.367
31.941
33.457
34.881
36.169
37.293
38.222
38.901
39.271
39.256
38.763
37.741
36.162
34.01
31.301
28.07
24.373
20.308
15.966
11.432
6.784
2.117
-2.45
-6.837
-10.987
-14.893
-18.625
-22.238
-25.775
-29.373
-33.2
-37.303
-41.688
-46.184
-50.325
-53.772
-56.226
-57.201
-56.349
-53.531
-48.492
-41.319
-32.794
-23.483
-14.643
-8.603
-6.268
-7.954
-13.369
-20.081
-28.094
-39.866
-57.646
-84.643
-120.377
-160.32
-199.142
-230.203
-247.773
-246.108
-219.336
-163.495
-77.875
32.121
157.467
289.258
421.097
550.632
675.483
788.689
878.081
928.082
926.204
869.223
763.41
623.952
468.959
314.295
172.996
52.35
-43.014
-111.095
-153.147
-171.377
-172.181
-162.961
-150.697
-141.467
-135.972
-132.023
-125.594
-113.179
-95.075
-73.964
-54.352
-39.721
-30.809
-26.941
-26.306
-27.373
-29.851
-33.62
-38.196
-42.975
-47.128
-49.84
-50.95
-50.648
-49.016
-46.284
-42.854
-39.08
-35.487
-32.666
-30.806
-29.871
-29.757
-30.207
-30.968
-31.863
-32.642
-33.041
-32.947
-32.322
-31.195
-29.671
-27.828
-25.713
-23.393
-20.937
-18.397
-15.832
-13.293
-10.822
-8.469
-6.275
-4.267
-2.466
-0.883
0.486
1.646
2.615
3.413
4.055
4.555
4.926
5.182
5.344
5.435
5.48
5.507
5.539
5.604
5.728
5.933
6.239
6.667
7.238
7.973
8.896
10.02
11.361
12.93
14.732
16.77
19.037
21.522
24.209
27.085
30.139
33.363
36.751
40.298
43.995
47.828
51.794
55.901
60.163
64.598
69.225
74.065
79.147
84.513
90.195
96.21
102.564
109.241
116.217
123.457
130.916
138.546
146.274
154.008
161.642
169.054
176.128
182.753
188.806
194.155
198.683
202.294
204.915
206.502
207.028
206.481
204.869
202.214
198.568
194.007
188.628
182.548
175.88
168.724
161.193
153.403
145.462
137.464
129.482
121.568
113.768
106.117
98.642
91.36
84.268
77.351
70.577
63.906
57.306
50.757
44.24
37.736
31.232
24.724
18.218
11.736
5.297
-1.081
-7.376
-13.567
-19.624
-25.515
-31.201
-36.646
-41.817
-46.693
-51.252
-55.481
-59.37
-62.91
-66.104
-68.959
-71.48
-73.674
-75.546
-77.104
-78.356
-79.314
-79.992
-80.402
-80.559
-80.475
-80.163
-79.635
-78.905
-77.985
-76.888
-75.623
-74.204
-72.644
-70.955
-69.153
-67.251
-65.261
-63.198
-61.073
-58.9
-56.691
-54.457
-52.208
-49.954
-47.706
-45.473
-43.263
-41.086
-38.949
-36.857
-34.817
-32.836
-30.919
-29.07
-27.295
-25.595
-23.977
-22.443
-20.997
-19.639
-18.369
-17.187
-16.09
-15.079
-14.151
-13.302
-12.53
-11.834
-11.215
-10.673
-10.207
-9.814
-9.49
-9.233
-9.039
-8.904
-8.822
-8.783
-8.779
-8.807
-8.869
-8.967
-9.098
-9.252
-9.412
-9.569
-9.715
-9.838
-9.924
-9.95
-9.903
-9.781
-9.594
-9.356
-9.07
-8.729
-8.318
-7.826
-7.252
-6.607
-5.904
-5.142
-4.324
-3.466
-2.599
-1.763
-0.982
-0.252
0.454
1.15
1.839
2.519
3.183
3.838
4.509
5.222
6.004
6.871
7.844
8.964
10.29
11.881
13.779
15.989
18.497
21.32
24.468
27.94
31.73
35.798
40.085
44.538
49.093
53.674
58.206
62.602
66.765
70.617
74.083
77.111
79.657
81.646
83.02
83.748
83.811
83.223
82.02
80.236
77.929
75.189
72.099
68.734
65.17
61.456
57.647
53.798
49.963
46.209
42.597
39.162
35.933
32.927
30.141
27.568
25.178
22.91
20.715
18.564
16.431
14.311
12.195
10.066
7.913
5.725
3.49
1.205
-1.136
-3.537
-5.995
-8.498
-11.025
-13.538
-16.011
-18.426
-20.771
-23.043
-25.237
-27.348
-29.375
-31.324
-33.196
-34.992
-36.711
-38.347
-39.897
-41.365
-42.753
-44.066
-45.308
-46.481
-47.585
-48.621
-49.586
-50.48
-51.296
-52.029
-52.672
-53.221
-53.671
-54.021
-54.266
-54.404
-54.432
-54.349
-54.153
-53.843
-53.415
-52.869
-52.203
-51.415
-50.507
-49.478
-48.33
-47.065
-45.688
-44.203
-42.617
-40.939
-39.18
-37.349
-35.459
-33.521
-31.55
-29.56
-27.566
-25.583
-23.629
-21.721
-19.878
-18.119
-16.463
-14.929
-13.532
-12.285
-11.2
-10.287
-9.556
-9.014
-8.666
-8.517
-8.571
-8.837
-9.321
-10.025
-10.948
-12.084
-13.427
-14.966
-16.686
-18.566
-20.583
-22.714
-24.932
-27.21
-29.52
-31.833
-34.123
-36.368
-38.543
-40.619
-42.564
-44.34
-45.929
-47.339
-48.572
-49.628
-50.546
-51.421
-52.439
-53.888
-56.01
-58.952
-62.829
-67.722
-73.592
-80.208
-87.014
-93.145
-97.736
-100.1
-99.746
-96.399
-90.006
-80.934
-70.233
-59.487
-50.406
-44.701
-43.756
-48.439
-59.535
-76.339
-95.946
-115.211
-130.776
-141.279
-148.98
-154.272
-153.977
-140.695
-102.658
-32.772
67.693
190.089
320.479
448.667
570.234
683.49
785.46
865.469
907.605
897.163
827.431
705.888
550.999
386.132
233.011
104.522
5.528
-65.677
-115.408
-147.946
-166.755
-173.733
-167.712
-151.372
-127.846
-100.283
-74.644
-52.473
-34.61
-22.624
-15.385
-13.77
-18.178
-27.149
-39.538
-52.885
-64.726
-73.417
-77.881
-78.08
-74.444
-67.582
-58.394
-47.8
-36.767
-26.426
-17.471
-10.169
-4.655
-0.805
1.572
2.587
2.493
1.661
0.311
-1.409
-3.397
-5.681
-8.259
-11.067
-14.09
-17.314
-20.689
-24.179
-27.707
-31.14
-34.376
-37.32
-39.9
-42.098
-43.898
-45.29
-46.286
-46.89
-47.111
-46.977
-46.503
-45.694
-44.571
-43.147
-41.46
-39.572
-37.537
-35.399
-33.193
-30.933
-28.63
-26.293
-23.916
-21.484
-18.981
-16.381
-13.667
-10.829
-7.847
-4.703
-1.374
2.168
5.939
9.95
14.216
18.746
23.55
28.632
33.979
39.572
45.394
51.417
57.609
63.928
70.314
76.718
83.105
89.45
95.745
101.975
108.11
114.115
119.954
125.602
131.061
136.332
141.401
146.262
150.904
155.368
159.755
164.105
168.36
172.375
175.973
179.08
181.777
184.146
186.152
187.795
189.186
190.615
192.476
194.878
197.528
199.944
201.764
202.722
202.546
200.789
196.875
190.564
182.142
172.234
161.383
149.946
138.209
126.541
115.452
105.279
95.97
87.208
78.743
70.469
62.368
54.424
46.5
38.476
30.391
22.389
14.578
7.002
-0.353
-7.533
-14.52
-21.288
-27.84
-34.205
-40.417
-46.499
-52.443
-58.227
-63.838
-69.263
-74.491
-79.502
-84.262
-88.744
-92.932
-96.818
-100.4
-103.682
-106.666
-109.361
-111.784
-113.945
-115.859
-117.537
-118.989
-120.229
-121.271
-122.129
-122.82
-123.36
-123.765
-124.049
-124.226
-124.309
-124.308
-124.233
-124.091
-123.89
-123.638
-123.344
-123.017
-122.666
-122.299
-121.923
-121.548
-121.179
-120.822
-120.482
-120.162
-119.866
-119.595
-119.351
-119.136
-118.949
-118.792
-118.663
-118.563
-118.49
-118.444
-118.424
-118.428
-118.454
-118.502
-118.57
-118.657
-118.76
-118.879
-119.013
-119.16
-119.319
-119.489
-119.668
-119.856
-120.05
-120.25
-120.455
-120.662
-120.871
-121.081
-121.291
-121.502
-121.712
-121.923
-122.133
-122.345
-122.559
-122.774
-122.994
-123.217
-123.446
-123.681
-123.922
-124.172
-124.43
-124.697
-124.973
-125.259
-125.554
-125.859
-126.174
-126.499
-126.833
-127.176
-127.528
-127.888
-128.256
-128.631
-129.011
-129.397
-129.788
-130.181
-130.576
-130.971
-131.365
-131.756
-132.143
-132.522
-132.892
-133.251
-133.595
-133.923
-134.233
-134.52
-134.784
-135.022
-135.233
-135.413
-135.562
-135.678
-135.76
-135.805
-135.813
-135.783
-135.713
-135.604
-135.455
-135.265
-135.036
-134.766
-134.457
-134.108
-133.722
-133.299
-132.84
-132.346
-131.82
-131.263
-130.677
-130.065
-129.431
-128.775
-128.103
-127.416
-126.718
-126.013
-125.302
-124.59
-123.879
-123.171
-122.47
-121.778
-121.098
-120.431
-119.78
-119.146
-118.531
-117.936
-117.361
-116.806
-116.273
-115.761
-115.269
-114.797
-114.344
-113.91
-113.495
-113.093
-112.702
-112.318
-111.938
-111.563
-111.19
-110.808
-110.416
-110.022
-109.632
-109.252
-108.879
-108.493
-108.086
-107.674
-107.242
-106.747
-106.156
-105.433
-104.569
-103.613
-102.583
-101.422
-100.181
-99.053
-98.091
-97.231
-96.5
-95.704
-95.185
-96.165
-98.465
-100.935
-101.811
-97.646
-88.43
-77.683
-68.836
-66.771
-72.108
-80.172
-87.329
-89.752
-86.529
-81.144
-75.814
-71.963
-70.131
-68.912
-67.609
-66.288
-64.894
-63.636
-62.586
-61.554
-60.479
-59.401
-58.319
-57.228
-56.139
-55.066
-54.031
-53.073
-52.208
-51.425
-50.723
-50.11
-49.589
-49.168
-48.85
-48.632
-48.511
-48.49
-48.568
-48.747
-49.026
-49.393
-49.838
-50.351
-50.924
-51.559
-52.253
-52.997
-53.787
-54.617
-55.48
-56.377
-57.295
-58.209
-59.092
-59.907
-60.627
-61.242
-61.741
-62.123
-62.371
-62.453
-62.343
-62.009
-61.425
-60.579
-59.434
-57.944
-56.149
-54.158
-52.159
-50.452
-49.267
-48.761
-49.134
-50.491
-52.779
-55.843
-59.201
-62.126
-64.018
-64.283
-62.332
-57.936
-51.099
-42.03
-31.614
-21.04
-11.428
-4.311
-1.243
-3.196
-10.965
-24.392
-41.695
-60.884
-79.515
-95.801
-109.757
-120.847
-127.606
-125.165
-104.885
-59.311
15.705
117.651
237.142
364.455
492.92
618.865
740.248
850.713
935.491
976.823
959.873
879.315
745.806
580.728
409.743
256.13
132.855
43.438
-17.032
-57.811
-86.596
-108.584
-124.025
-130.425
-126.238
-111.266
-88.395
-62.375
-37.396
-16.76
-2.232
5.983
8.507
6.525
1.458
-5.041
-11.3
-15.878
-17.411
-15.193
-9.268
0.024
11.998
25.724
40.302
54.77
68.069
79.536
88.881
95.988
101.005
104.168
105.683
105.872
105.153
103.832
102.135
100.24
98.225
96.173
94.21
92.444
90.953
89.821
89.123
88.907
89.22
90.085
91.488
93.4
95.775
98.543
101.636
104.984
108.52
112.183
115.904
119.602
123.217
126.703
130.022
133.161
136.112
138.867
141.438
143.846
146.116
148.281
150.373
152.419
154.45
156.501
158.609
160.818
163.164
165.67
168.359
171.246
174.34
177.653
181.186
184.936
188.896
193.063
197.43
201.992
206.74
211.66
216.736
221.951
227.283
232.714
238.223
243.786
249.381
254.981
260.563
266.101
271.57
276.939
282.18
287.261
292.152
296.824
301.245
305.387
309.22
312.717
315.853
318.603
320.946
322.859
324.324
325.322
325.84
325.862
325.379
324.382
322.863
320.82
318.25
315.157
311.542
307.413
302.778
297.649
292.038
285.962
279.439
272.489
265.133
257.397
249.305
240.884
232.164
223.173
213.943
204.505
194.89
185.131
175.259
165.308
155.308
145.293
135.293
125.34
115.463
105.692
96.055
86.58
77.292
68.217
59.377
50.795
42.489
34.479
26.782
19.411
12.38
5.7
-0.62
-6.573
-12.153
-17.359
-22.188
-26.641
-30.72
-34.43
-37.776
-40.765
-43.405
-45.708
-47.684
-49.346
-50.707
-51.783
-52.589
-53.141
-53.457
-53.555
-53.453
-53.17
-52.724
-52.134
-51.421
-50.602
-49.697
-48.724
-47.702
-46.649
-45.581
-44.516
-43.468
-42.454
-41.487
-40.58
-39.745
-38.994
-38.335
-37.779
-37.333
-37.005
-36.8
-36.722
-36.776
-36.964
-37.288
-37.749
-38.344
-39.074
-39.936
-40.927
-42.043
-43.279
-44.63
-46.089
-47.651
-49.309
-51.054
-52.88
-54.777
-56.737
-58.752
-60.815
-62.915
-65.045
-67.198
-69.364
-71.537
-73.709
-75.872
-78.021
-80.148
-82.247
-84.312
-86.339
-88.321
-90.254
-92.133
-93.956
-95.718
-97.416
-99.047
-100.61
-102.101
-103.519
-104.862
-106.13
-107.321
-108.435
-109.472
-110.43
-111.312
-112.116
-112.842
-113.492
-114.065
-114.562
-114.983
-115.328
-115.598
-115.793
-115.913
-115.96
-115.934
-115.835
-115.665
-115.423
-115.112
-114.732
-114.284
-113.771
-113.194
-112.555
-111.856
-111.099
-110.288
-109.424
-108.511
-107.553
-106.552
-105.512
-104.437
-103.331
-102.197
-101.041
-99.866
-98.678
-97.48
-96.278
-95.077
-93.881
-92.696
-91.526
-90.377
-89.254
-88.162
-87.105
-86.088
-85.116
-84.192
-83.321
-82.506
-81.75
-81.056
-80.427
-79.864
-79.37
-78.946
-78.593
-78.312
-78.102
-77.965
-77.899
-77.904
-77.978
-78.12
-78.329
-78.603
-78.94
-79.337
-79.793
-80.306
-80.871
-81.489
-82.154
-82.866
-83.621
-84.416
-85.25
-86.118
-87.02
-87.953
-88.914
-89.902
-90.915
-91.951
-93.008
-94.085
-95.179
-96.29
-97.416
-98.555
-99.706
-100.868
-102.039
-103.219
-104.407
-105.602
-106.802
-108.007
-109.214
-110.423
-111.632
-112.838
-114.039
-115.233
-116.415
-117.584
-118.736
-119.868
-120.975
-122.055
-123.102
-124.112
-125.081
-126.003
-126.874
-127.689
-128.444
-129.133
-129.753
-130.301
-130.773
-131.166
-131.477
-131.703
-131.843
-131.894
-131.852
-131.718
-131.489
-131.166
-130.749
-130.241
-129.644
-128.964
-128.208
-127.382
-126.493
-125.552
-124.569
-123.554
-122.519
-121.474
-120.43
-119.397
-118.387
-117.411
-116.478
-115.595
-114.768
-114
-113.296
-112.662
-112.098
-111.599
-111.16
-110.776
-110.445
-110.174
-109.967
-109.825
-109.747
-109.736
-109.793
-109.923
-110.119
-110.357
-110.611
-110.842
-111.02
-111.127
-111.148
-111.068
-110.861
-110.479
-109.876
-109.014
-107.857
-106.383
-104.554
-102.315
-99.687
-96.787
-93.82
-91.083
-88.82
-87.187
-86.353
-86.467
-87.549
-89.46
-91.743
-93.665
-94.557
-93.865
-91.102
-85.977
-78.383
-68.546
-57.38
-46.231
-36.497
-29.785
-27.657
-31.286
-41.78
-58.705
-79.385
-100.967
-120.24
-135.853
-149.637
-161.847
-170.057
-167.291
-142.138
-85.34
6.843
130.344
275.513
431.507
587.818
735.737
863.992
957.332
1000.827
982.517
900.345
766.546
601.928
430.497
273.865
142.384
37.428
-43.058
-104.577
-148.847
-174.595
-184.064
-180.189
-169.222
-158.851
-151.846
-147.708
-142.564
-132.264
-116.154
-96.376
-77.455
-62.942
-53.807
-49.372
-47.619
-47.11
-47.634
-48.99
-50.784
-52.359
-52.732
-51.397
-48.443
-44.053
-38.397
-31.727
-24.372
-16.822
-9.733
-3.46
1.968
6.619
10.664
14.255
17.487
20.541
23.627
26.841
30.191
33.618
37.001
40.25
43.297
46.066
48.497
50.551
52.204
53.466
54.362
54.943
55.29
55.481
55.607
55.754
55.982
56.357
56.944
57.795
58.957
60.465
62.33
64.563
67.179
70.176
73.544
77.249
81.231
85.44
89.835
94.38
99.061
103.86
108.759
113.754
118.848
124.046
129.357
134.783
140.319
145.963
151.72
157.599
163.619
169.786
176.101
182.558
189.145
195.847
202.645
209.512
216.413
223.313
230.176
236.969
243.661
250.218
256.603
262.779
268.712
274.367
279.711
284.708
289.321
293.515
297.267
300.556
303.366
305.687
307.513
308.843
309.69
310.063
309.972
309.424
308.42
306.961
305.05
302.692
299.896
296.664
292.984
288.841
284.217
279.089
273.439
267.233
260.427
252.985
244.888
236.13
226.726
216.704
206.101
194.968
183.361
171.361
159.068
146.599
134.08
121.636
109.386
97.462
86.009
75.156
65.011
55.659
47.153
39.533
32.817
27.006
22.081
17.994
14.673
12.025
9.942
8.319
7.064
6.074
5.239
4.458
3.649
2.745
1.705
0.496
-0.908
-2.518
-4.333
-6.334
-8.486
-10.743
-13.049
-15.358
-17.637
-19.851
-21.968
-23.962
-25.814
-27.52
-29.088
-30.524
-31.837
-33.036
-34.137
-35.162
-36.136
-37.088
-38.051
-39.047
-40.092
-41.198
-42.375
-43.625
-44.95
-46.343
-47.792
-49.288
-50.823
-52.386
-53.97
-55.562
-57.149
-58.719
-60.257
-61.751
-63.191
-64.566
-65.867
-67.087
-68.218
-69.256
-70.197
-71.035
-71.766
-72.385
-72.887
-73.269
-73.528
-73.662
-73.669
-73.549
-73.304
-72.936
-72.449
-71.845
-71.132
-70.313
-69.395
-68.386
-67.293
-66.125
-64.891
-63.6
-62.262
-60.887
-59.487
-58.071
-56.65
-55.234
-53.834
-52.46
-51.121
-49.827
-48.587
-47.41
-46.305
-45.279
-44.34
-43.495
-42.748
-42.106
-41.573
-41.151
-40.844
-40.653
-40.578
-40.62
-40.779
-41.052
-41.438
-41.933
-42.533
-43.234
-44.03
-44.915
-45.884
-46.928
-48.041
-49.214
-50.439
-51.709
-53.013
-54.345
-55.694
-57.052
-58.41
-59.76
-61.092
-62.4
-63.674
-64.909
-66.096
-67.229
-68.304
-69.313
-70.253
-71.119
-71.906
-72.613
-73.235
-73.771
-74.218
-74.577
-74.845
-75.024
-75.113
-75.115
-75.03
-74.861
-74.611
-74.283
-73.881
-73.409
-72.872
-72.273
-71.62
-70.918
-70.172
-69.389
-68.575
-67.737
-66.881
-66.012
-65.139
-64.266
-63.399
-62.546
-61.711
-60.899
-60.118
-59.371
-58.664
-58.002
-57.389
-56.83
-56.33
-55.891
-55.517
-55.212
-54.979
-54.819
-54.736
-54.73
-54.802
-54.954
-55.186
-55.497
-55.885
-56.35
-56.889
-57.5
-58.178
-58.92
-59.722
-60.579
-61.486
-62.438
-63.43
-64.455
-65.508
-66.583
-67.672
-68.769
-69.868
-70.962
-72.042
-73.102
-74.134
-75.13
-76.084
-76.986
-77.831
-78.609
-79.313
-79.936
-80.471
-80.91
-81.249
-81.48
-81.599
-81.6
-81.481
-81.24
-80.873
-80.38
-79.761
-79.016
-78.146
-77.154
-76.042
-74.813
-73.472
-72.023
-70.474
-68.83
-67.1
-65.293
-63.419
-61.491
-59.522
-57.527
-55.522
-53.524
-51.551
-49.622
-47.756
-45.971
-44.285
-42.714
-41.273
-39.978
-38.842
-37.877
-37.096
-36.505
-36.112
-35.919
-35.923
-36.121
-36.506
-37.073
-37.822
-38.75
-39.86
-41.152
-42.632
-44.3
-46.158
-48.195
-50.387
-52.713
-55.147
-57.672
-60.288
-62.981
-65.732
-68.51
-71.273
-73.976
-76.586
-79.043
-81.259
-83.184
-84.835
-86.309
-87.805
-89.515
-91.565
-94.094
-97.303
-101.294
-105.974
-111.069
-116.052
-120.363
-123.654
-125.579
-125.62
-123.417
-118.981
-112.644
-105.236
-97.864
-91.328
-86.466
-84.674
-87.335
-95.396
-109.541
-129.002
-151.514
-175.272
-198.054
-218.468
-237.148
-252.84
-263.106
-262.952
-243.413
-198.596
-125.513
-24.991
95.879
231.272
375.852
521.922
660.952
779.651
860.546
889.133
858.281
769.46
636.27
479.547
319.057
173.47
53.404
-40.135
-109.068
-159.332
-196.798
-222.928
-239.657
-249.369
-253.18
-254.233
-254.054
-250.668
-243.434
-231.369
-214.674
-196.678
-179.659
-165.271
-154.316
-145.78
-138.9
-133.269
-128.745
-125.615
-123.708
-122.314
-120.629
-117.844
-113.59
-107.957
-101.044
-93.006
-84.195
-75.124
-66.445
-58.847
-52.675
-47.935
-44.541
-42.306
-41.012
-40.451
-40.338
-40.351
-40.31
-40.163
-39.881
-39.481
-38.921
-38.088
-36.929
-35.436
-33.605
-31.453
-28.997
-26.235
-23.204
-19.962
-16.554
-13.017
-9.371
-5.607
-1.742
2.194
6.153
10.059
13.855
17.51
20.996
24.301
27.423
30.359
33.125
35.757
38.281
40.72
43.09
45.398
47.661
49.904
52.159
54.463
56.851
59.348
61.981
64.775
67.746
70.901
74.238
77.743
81.4
85.192
89.097
93.088
97.141
101.231
105.335
109.438
113.519
117.556
121.531
125.418
129.202
132.884
136.465
139.958
143.391
146.789
150.19
153.646
157.191
160.846
164.62
168.5
172.47
176.509
180.586
184.668
188.716
192.668
196.457
200.002
203.199
205.945
208.124
209.594
210.237
209.954
208.667
206.337
202.948
198.496
192.993
186.463
178.938
170.467
161.117
150.967
140.119
128.679
116.778
104.577
92.243
79.941
67.808
55.943
44.421
33.302
22.643
12.493
2.89
-6.132
-14.547
-22.336
-29.472
-35.942
-41.762
-46.978
-51.663
-55.905
-59.77
-63.294
-66.503
-69.411
-72.037
-74.396
-76.493
-78.335
-79.933
-81.31
-82.507
-83.562
-84.486
-85.276
-85.902
-86.318
-86.501
-86.438
-86.12
-85.55
-84.733
-83.676
-82.401
-80.933
-79.291
-77.481
-75.498
-73.339
-71.012
-68.537
-65.942
-63.264
-60.532
-57.772
-55.012
-52.274
-49.574
-46.926
-44.334
-41.798
-39.32
-36.908
-34.569
-32.314
-30.148
-28.072
-26.086
-24.188
-22.376
-20.646
-18.992
-17.409
-15.893
-14.441
-13.051
-11.725
-10.46
-9.255
-8.109
-7.019
-5.983
-4.999
-4.063
-3.171
-2.322
-1.513
-0.743
-0.01
0.686
1.345
1.969
2.556
3.105
3.618
4.092
4.528
4.924
5.28
5.593
5.864
6.09
6.27
6.401
6.484
6.515
6.495
6.423
6.297
6.117
5.885
5.599
5.261
4.871
4.43
3.939
3.399
2.812
2.18
1.505
0.791
0.042
-0.739
-1.548
-2.379
-3.228
-4.089
-4.957
-5.828
-6.696
-7.554
-8.399
-9.223
-10.022
-10.789
-11.519
-12.207
-12.847
-13.435
-13.965
-14.435
-14.839
-15.174
-15.437
-15.625
-15.736
-15.767
-15.717
-15.585
-15.37
-15.072
-14.693
-14.233
-13.696
-13.085
-12.402
-11.652
-10.84
-9.971
-9.051
-8.085
-7.081
-6.045
-4.984
-3.906
-2.819
-1.731
-0.65
0.416
1.457
2.467
3.436
4.357
5.222
6.023
6.753
7.404
7.969
8.442
8.817
9.088
9.25
9.298
9.23
9.041
8.729
8.294
7.734
7.049
6.241
5.31
4.258
3.089
1.804
0.409
-1.092
-2.695
-4.394
-6.183
-8.056
-10.005
-12.026
-14.109
-16.249
-18.437
-20.666
-22.929
-25.218
-27.524
-29.841
-32.161
-34.474
-36.775
-39.055
-41.307
-43.523
-45.697
-47.823
-49.893
-51.903
-53.846
-55.718
-57.514
-59.228
-60.857
-62.398
-63.846
-65.198
-66.45
-67.6
-68.645
-69.581
-70.408
-71.122
-71.721
-72.203
-72.565
-72.807
-72.924
-72.917
-72.782
-72.519
-72.125
-71.601
-70.945
-70.158
-69.241
-68.193
-67.017
-65.714
-64.286
-62.736
-61.066
-59.279
-57.38
-55.373
-53.262
-51.056
-48.762
-46.388
-43.945
-41.444
-38.897
-36.317
-33.72
-31.119
-28.532
-25.973
-23.459
-21.007
-18.635
-16.359
-14.197
-12.164
-10.273
-8.54
-6.975
-5.595
-4.406
-3.414
-2.619
-2.024
-1.631
-1.451
-1.488
-1.742
-2.217
-2.915
-3.836
-4.985
-6.353
-7.919
-9.658
-11.537
-13.528
-15.615
-17.776
-19.996
-22.247
-24.482
-26.66
-28.742
-30.685
-32.477
-34.087
-35.454
-36.602
-37.609
-38.608
-39.856
-41.54
-43.709
-46.48
-49.989
-54.226
-59.178
-64.583
-69.779
-74.33
-78.044
-80.555
-81.499
-80.659
-77.674
-73.308
-69.616
-67.868
-68.409
-69.881
-69.743
-67.495
-65.926
-70.115
-83.722
-106.873
-135.049
-161.053
-181.507
-195.024
-199.793
-192.491
-163.262
-102.548
-8.301
114.461
252.664
392.789
528.303
656.398
774.347
875.415
944.727
966.357
932.039
842.729
713.451
566.151
418.85
286.762
174.447
79.242
1.374
-61.149
-106.575
-130.643
-136.459
-128.918
-115.861
-106.527
-103.259
-104.251
-104.854
-99.948
-88.512
-72.54
-55.88
-41.755
-30.961
-22.859
-15.946
-9.272
-3.016
2.37
6.699
10.267
13.695
17.622
22.261
27.505
33.31
39.584
46.087
52.478
58.256
62.848
65.998
67.717
68.075
67.244
65.418
62.788
59.633
56.275
52.916
49.674
46.642
43.89
41.514
39.6
38.177
37.233
36.748
36.707
37.092
37.874
39.005
40.427
42.096
43.982
46.068
48.322
50.703
53.144
55.571
57.938
60.214
62.377
64.423
66.345
68.147
69.85
71.489
73.089
74.678
76.274
77.889
79.548
81.279
83.117
85.107
87.277
89.649
92.241
95.068
98.143
101.481
105.081
108.928
113.01
117.311
121.815
126.509
131.363
136.337
141.392
146.487
151.595
156.705
161.798
166.849
171.837
176.734
181.529
186.23
190.835
195.335
199.723
203.995
208.17
212.292
216.388
220.469
224.522
228.505
232.388
236.145
239.734
243.106
246.193
248.906
251.191
253.011
254.317
255.056
255.137
254.44
252.876
250.385
246.93
242.496
237.065
230.628
223.214
214.878
205.693
195.743
185.064
173.676
161.634
149.011
135.924
122.514
108.906
95.206
81.532
68.01
54.759
41.883
29.439
17.459
5.973
-4.979
-15.315
-24.95
-33.839
-41.962
-49.323
-55.944
-61.844
-67.056
-71.647
-75.715
-79.343
-82.592
-85.493
-88.059
-90.318
-92.314
-94.117
-95.781
-97.343
-98.827
-100.251
-101.637
-102.994
-104.314
-105.557
-106.661
-107.587
-108.312
-108.834
-109.157
-109.28
-109.192
-108.883
-108.358
-107.626
-106.698
-105.583
-104.282
-102.809
-101.189
-99.461
-97.67
-95.851
-94.026
-92.213
-90.426
-88.679
-86.984
-85.349
-83.771
-82.251
-80.789
-79.39
-78.057
-76.792
-75.591
-74.446
-73.351
-72.3
-71.289
-70.316
-69.374
-68.461
-67.574
-66.713
-65.879
-65.071
-64.287
-63.525
-62.781
-62.054
-61.342
-60.642
-59.952
-59.271
-58.597
-57.93
-57.27
-56.619
-55.976
-55.343
-54.721
-54.114
-53.523
-52.95
-52.399
-51.872
-51.372
-50.903
-50.467
-50.069
-49.71
-49.394
-49.125
-48.904
-48.735
-48.62
-48.561
-48.56
-48.62
-48.741
-48.926
-49.176
-49.491
-49.874
-50.324
-50.842
-51.427
-52.078
-52.795
-53.576
-54.419
-55.322
-56.282
-57.295
-58.359
-59.47
-60.624
-61.818
-63.048
-64.308
-65.595
-66.906
-68.234
-69.577
-70.93
-72.289
-73.649
-75.007
-76.358
-77.7
-79.029
-80.34
-81.631
-82.9
-84.142
-85.356
-86.538
-87.687
-88.801
-89.877
-90.916
-91.915
-92.873
-93.791
-94.668
-95.505
-96.301
-97.057
-97.774
-98.453
-99.096
-99.702
-100.274
-100.812
-101.319
-101.795
-102.243
-102.663
-103.056
-103.426
-103.771
-104.094
-104.395
-104.676
-104.936
-105.178
-105.401
-105.606
-105.793
-105.964
-106.117
-106.254
-106.373
-106.475
-106.558
-106.622
-106.666
-106.688
-106.687
-106.662
-106.61
-106.531
-106.422
-106.281
-106.107
-105.897
-105.649
-105.362
-105.033
-104.661
-104.244
-103.78
-103.268
-102.707
-102.096
-101.433
-100.718
-99.949
-99.125
-98.245
-97.309
-96.315
-95.263
-94.153
-92.984
-91.757
-90.473
-89.131
-87.733
-86.28
-84.773
-83.213
-81.602
-79.941
-78.232
-76.477
-74.678
-72.837
-70.957
-69.041
-67.09
-65.106
-63.093
-61.051
-58.984
-56.892
-54.78
-52.649
-50.504
-48.348
-46.184
-44.016
-41.85
-39.69
-37.54
-35.405
-33.289
-31.197
-29.135
-27.108
-25.121
-23.183
-21.299
-19.479
-17.732
-16.068
-14.497
-13.031
-11.681
-10.46
-9.38
-8.449
-7.68
-7.08
-6.66
-6.425
-6.385
-6.542
-6.903
-7.47
-8.245
-9.227
-10.407
-11.776
-13.319
-15.027
-16.889
-18.903
-21.066
-23.375
-25.826
-28.423
-31.162
-34.04
-37.039
-40.121
-43.254
-46.408
-49.564
-52.718
-55.854
-58.943
-61.946
-64.813
-67.496
-69.959
-72.148
-73.976
-75.424
-76.53
-77.412
-78.307
-79.423
-80.897
-82.876
-85.512
-88.804
-92.621
-96.688
-100.448
-103.379
-105.098
-105.207
-103.44
-99.71
-94.028
-86.669
-78.388
-70.68
-65.547
-64.599
-68.591
-75.846
-83.386
-89.792
-95.214
-103.574
-119.689
-145.194
-179.144
-215.086
-244.203
-257.294
-243.938
-197.91
-117.41
-6.855
122.365
258.81
393.999
524.264
649.027
763.937
858.713
917.481
924.859
874.321
768.991
624.395
462.346
301.463
158.667
41.263
-51.359
-118.908
-165.487
-192.795
-199.637
-191.056
-172.713
-152.7
-140.703
-139.087
-145.324
-153.238
-155.892
-151.203
-141.137
-130.175
-121.675
-116.143
-112.639
-109.33
-105.508
-101.811
-98.655
-96.133
-94.276
-92.673
-90.9
-88.965
-86.506
-83.059
-78.606
-73.245
-67.041
-60.35
-53.468
-46.408
-39.573
-33.335
-27.738
-22.857
-18.69
-15.077
-12.015
-9.629
-7.744
-6.22
-5.058
-4.173
-3.573
-3.309
-3.288
-3.368
-3.526
-3.725
-3.897
-4.039
-4.105
-4.032
-3.807
-3.416
-2.816
-1.984
-0.908
0.439
2.063
3.947
6.074
8.393
10.832
13.336
15.859
18.368
20.853
23.307
25.727
28.123
30.517
32.932
35.396
37.931
40.551
43.279
46.141
49.175
52.429
55.943
59.742
63.841
68.247
72.957
77.962
83.245
88.772
94.5
100.392
106.411
112.53
118.731
124.994
131.292
137.597
143.879
150.119
156.313
162.463
168.564
174.614
180.615
186.58
192.548
198.543
204.572
210.627
216.675
222.68
228.611
234.431
240.096
245.547
250.701
255.473
259.801
263.622
266.869
269.461
271.278
272.226
272.241
271.277
269.313
266.33
262.3
257.217
251.107
244.013
236.003
227.144
217.479
207.065
195.968
184.286
172.155
159.695
147.006
134.188
121.339
108.578
96.046
83.848
72.059
60.742
49.944
39.731
30.178
21.341
13.257
5.935
-0.644
-6.491
-11.614
-16.044
-19.829
-23.052
-25.821
-28.216
-30.291
-32.099
-33.689
-35.132
-36.499
-37.842
-39.196
-40.584
-42.024
-43.536
-45.141
-46.836
-48.598
-50.389
-52.149
-53.845
-55.458
-56.969
-58.365
-59.623
-60.724
-61.666
-62.459
-63.111
-63.631
-64.022
-64.288
-64.448
-64.525
-64.549
-64.556
-64.569
-64.602
-64.669
-64.782
-64.948
-65.172
-65.451
-65.774
-66.132
-66.521
-66.934
-67.367
-67.809
-68.251
-68.68
-69.086
-69.459
-69.79
-70.072
-70.298
-70.462
-70.562
-70.593
-70.558
-70.454
-70.281
-70.037
-69.722
-69.335
-68.878
-68.351
-67.755
-67.094
-66.371
-65.59
-64.757
-63.877
-62.958
-62.006
-61.028
-60.034
-59.03
-58.026
-57.031
-56.054
-55.103
-54.188
-53.316
-52.496
-51.736
-51.042
-50.421
-49.88
-49.422
-49.053
-48.775
-48.594
-48.511
-48.527
-48.644
-48.862
-49.181
-49.6
-50.116
-50.728
-51.431
-52.222
-53.096
-54.047
-55.07
-56.159
-57.305
-58.503
-59.743
-61.018
-62.319
-63.638
-64.966
-66.295
-67.616
-68.92
-70.2
-71.447
-72.654
-73.815
-74.921
-75.968
-76.949
-77.86
-78.695
-79.45
-80.122
-80.708
-81.205
-81.613
-81.93
-82.154
-82.287
-82.329
-82.281
-82.144
-81.921
-81.614
-81.227
-80.763
-80.226
-79.622
-78.955
-78.23
-77.455
-76.634
-75.774
-74.881
-73.963
-73.026
-72.076
-71.122
-70.168
-69.223
-68.293
-67.385
-66.504
-65.656
-64.849
-64.086
-63.373
-62.715
-62.116
-61.581
-61.115
-60.72
-60.401
-60.16
-60
-59.925
-59.934
-60.03
-60.214
-60.486
-60.846
-61.293
-61.827
-62.444
-63.145
-63.924
-64.78
-65.708
-66.704
-67.763
-68.879
-70.047
-71.261
-72.514
-73.8
-75.112
-76.445
-77.791
-79.144
-80.496
-81.84
-83.17
-84.477
-85.753
-86.992
-88.185
-89.324
-90.403
-91.413
-92.349
-93.202
-93.966
-94.636
-95.204
-95.665
-96.015
-96.248
-96.362
-96.352
-96.219
-95.96
-95.575
-95.065
-94.431
-93.675
-92.799
-91.807
-90.701
-89.487
-88.169
-86.751
-85.241
-83.645
-81.973
-80.237
-78.449
-76.624
-74.778
-72.926
-71.085
-69.273
-67.506
-65.796
-64.156
-62.597
-61.13
-59.77
-58.528
-57.412
-56.428
-55.578
-54.862
-54.279
-53.825
-53.486
-53.25
-53.106
-53.051
-53.092
-53.242
-53.505
-53.89
-54.399
-55.027
-55.773
-56.629
-57.576
-58.599
-59.679
-60.787
-61.905
-63.007
-64.052
-65.014
-65.82
-66.354
-66.567
-66.446
-66.03
-65.463
-64.849
-64.228
-63.734
-63.546
-63.736
-64.312
-65.05
-65.466
-65.249
-64.213
-62.148
-58.884
-54.234
-48.128
-40.993
-33.502
-26.074
-19.227
-13.402
-9.492
-9.346
-13.64
-21.987
-32.936
-43.524
-53.167
-63.151
-75.098
-91.534
-112.132
-133.991
-152.563
-161.257
-153.436
-122.264
-64.26
20.449
129.382
255.757
394.593
542.617
693.67
839.611
966.5
1054.218
1085.526
1052.325
957.139
816.998
655.287
491.254
341.089
211.665
104.698
24.202
-29.305
-55.77
-58.489
-48.269
-35.635
-28.729
-30.8
-37.427
-41.779
-39.224
-28.659
-13.221
1.711
12.648
18.882
21.464
22.675
24.062
25.733
27.387
28.877
30.415
32.507
35.718
40.137
45.512
51.771
58.864
66.604
74.738
82.799
90.161
96.529
101.872
106.174
109.523
112.025
113.776
115.017
116.055
117.055
118.09
119.169
120.238
121.289
122.357
123.449
124.585
125.787
127.07
128.476
130.053
131.825
133.789
135.927
138.211
140.632
143.187
145.875
148.697
151.637
154.677
157.788
160.927
164.054
167.142
170.162
173.088
175.909
178.619
181.225
183.752
186.217
188.637
191.033
193.422
195.83
198.286
200.821
203.471
206.27
209.246
212.429
215.838
219.485
223.373
227.496
231.837
236.377
241.091
245.946
250.911
255.957
261.054
266.181
271.313
276.428
281.5
286.5
291.41
296.226
300.948
305.582
310.139
314.631
319.081
323.528
328.001
332.51
337.055
341.612
346.157
350.659
355.083
359.386
363.514
367.393
370.945
374.096
376.761
378.853
380.267
380.879
380.582
379.296
376.957
373.526
368.981
363.308
356.518
348.648
339.745
329.874
319.102
307.49
295.122
282.097
268.537
254.591
240.4
226.093
211.805
197.664
183.785
170.269
157.193
144.601
132.54
121.056
110.201
100.036
90.601
81.911
73.966
66.75
60.234
54.385
49.145
44.436
40.193
36.367
32.925
29.861
27.155
24.775
22.685
20.839
19.201
17.753
16.474
15.347
14.37
13.548
12.909
12.507
12.375
12.531
12.981
13.713
14.723
16.012
17.574
19.406
21.499
23.84
26.418
29.226
32.244
35.447
38.797
42.244
45.746
49.274
52.801
56.306
59.772
63.177
66.508
69.757
72.914
75.967
78.906
81.715
84.385
86.911
89.288
91.517
93.594
95.518
97.285
98.892
100.337
101.617
102.726
103.659
104.412
104.983
105.372
105.578
105.603
105.448
105.116
104.61
103.935
103.093
102.09
100.929
99.616
98.158
96.561
94.833
92.982
91.019
88.955
86.803
84.573
82.28
79.935
77.555
75.152
72.74
70.332
67.944
65.588
63.283
61.043
58.886
56.826
54.883
53.072
51.411
49.917
48.604
47.486
46.577
45.89
45.442
45.25
45.325
45.672
46.295
47.193
48.359
49.785
51.45
53.327
55.393
57.624
59.997
62.496
65.097
67.775
70.511
73.277
76.059
78.853
81.656
84.474
87.325
90.227
93.209
96.312
99.556
102.952
106.503
110.193
114.008
117.927
121.903
125.889
129.824
133.618
137.175
140.387
143.108
145.206
146.545
146.972
146.372
144.648
141.711
137.503
131.979
125.104
116.881
107.326
96.466
84.366
71.103
56.779
41.539
25.513
8.828
-8.374
-25.986
-43.909
-62.048
-80.332
-98.707
-117.119
-135.537
-153.938
-172.299
-190.617
-208.904
-227.18
-245.497
-263.89
-282.381
-300.995
-319.738
-338.607
-357.599
-376.692
-395.855
-415.054
-434.254
-453.415
-472.504
-491.477
-510.286
-528.879
-547.195
-565.18
-582.791
-599.987
-616.731
-632.994
-648.747
-663.968
-678.645
-692.761
-706.302
-719.25
-731.589
-743.302
-754.378
-764.808
-774.582
-783.691
-792.128
-799.882
-806.948
-813.32
-818.992
-823.958
-828.213
-831.755
-834.583
-836.703
-838.117
-838.833
-838.86
-838.208
-836.889
-834.918
-832.309
-829.078
-825.243
-820.822
-815.836
-810.307
-804.258
-797.714
-790.703
-783.254
-775.399
-767.168
-758.594
-749.714
-740.562
-731.175
-721.589
-711.839
-701.963
-691.995
-681.971
-671.926
-661.893
-651.904
-641.986
-632.167
-622.472
-612.927
-603.552
-594.36
-585.362
-576.569
-567.993
-559.651
-551.556
-543.718
-536.144
-528.842
-521.817
-515.075
-508.611
-502.406
-496.436
-490.667
-485.073
-479.636
-474.338
-469.164
-464.083
-459.047
-454.015
-448.944
-443.795
-438.545
-433.164
-427.607
-421.909
-416.166
-410.523
-405.22
-400.458
-396.335
-392.978
-390.499
-388.866
-387.999
-387.627
-387.179
-386.136
-384.117
-380.782
-375.856
-369.161
-360.538
-350.218
-339.549
-330.47
-324.6
-322.765
-323.455
-323.957
-322.914
-320.82
-321.674
-329.905
-347.155
-372.088
-397.747
-416.618
-421.98
-406.365
-366.629
-299.135
-201.43
-76.984
70.224
230.408
389.738
535.482
651.915
727.914
757.049
735.954
669.347
563.394
427.511
275.359
120.219
-22.283
-139.153
-223.325
-273.631
-294.846
-294.054
-279.54
-257.779
-234.544
-215.138
-200.726
-190.464
-181.228
-169.372
-154.806
-140.016
-128.641
-122.862
-122.35
-125.251
-128.926
-131.966
-133.803
-133.676
-131.482
-127.355
-121.404
-114.231
-106.518
-98.619
-91.043
-84.485
-79.281
-75.566
-73.336
-72.293
-72.146
-72.689
-73.612
-74.533
-75.178
-75.365
-75.004
-74.118
-72.726
-70.822
-68.431
-65.596
-62.368
-58.793
-54.91
-50.744
-46.329
-41.723
-36.99
-32.2
-27.415
-22.677
-18.009
-13.426
-8.933
-4.528
-0.203
4.055
8.269
12.457
16.632
20.807
24.995
29.21
33.472
37.799
42.209
46.714
51.325
56.049
60.898
65.879
70.999
76.26
81.663
87.209
92.903
98.748
104.744
110.887
117.177
123.61
130.186
136.909
143.773
150.762
157.856
165.029
172.254
179.51
186.768
193.993
201.158
208.245
215.242
222.153
228.97
235.672
242.232
248.606
254.764
260.696
266.389
271.837
277.04
281.993
286.706
291.206
295.492
299.538
303.295
306.687
309.656
312.173
314.224
315.814
316.947
317.617
317.812
317.524
316.729
315.395
313.472
310.878
307.572
303.561
298.88
293.61
287.819
281.542
274.805
267.617
259.973
251.868
243.314
234.321
224.93
215.218
205.286
195.276
185.318
175.495
165.86
156.436
147.237
138.302
129.683
121.438
113.65
106.416
99.814
93.914
88.763
84.356
80.664
77.621
75.137
73.15
71.623
70.531
69.868
69.621
69.759
70.251
71.052
72.091
73.311
74.656
76.078
77.564
79.115
80.754
82.53
84.482
86.626
88.972
91.513
94.233
97.124
100.176
103.371
106.711
110.193
113.81
117.56
121.428
125.387
129.405
133.436
137.434
141.367
145.204
148.924
152.513
155.955
159.241
162.367
165.328
168.116
170.725
173.146
175.374
177.409
179.253
180.91
182.386
183.688
184.822
185.793
186.606
187.269
187.785
188.159
188.395
188.501
188.485
188.357
188.126
187.803
187.4
186.928
186.398
185.824
185.216
184.585
183.942
183.299
182.666
182.053
181.47
180.926
180.432
179.995
179.625
179.329
179.113
178.986
178.953
179.02
179.191
179.471
179.865
180.375
181.004
181.754
182.628
183.625
184.746
185.991
187.357
188.843
190.446
192.161
193.986
195.915
197.944
200.066
202.276
204.568
206.935
209.369
211.864
214.412
217.006
219.637
222.298
224.982
227.68
230.386
233.092
235.79
238.475
241.138
243.774
246.377
248.94
251.457
253.925
256.339
258.695
260.989
263.219
265.382
267.478
269.504
271.46
273.347
275.165
276.916
278.602
280.225
281.79
283.3
284.761
286.177
287.554
288.898
290.214
291.51
292.791
294.065
295.337
296.615
297.906
299.216
300.553
301.924
303.336
304.794
306.306
307.877
309.512
311.217
312.997
314.856
316.799
318.829
320.951
323.167
325.48
327.891
330.402
333.012
335.72
338.524
341.423
344.413
347.492
350.655
353.899
357.221
360.614
364.075
367.596
371.173
374.797
378.462
382.156
385.871
389.598
393.329
397.054
400.762
404.444
408.09
411.693
415.246
418.74
422.169
425.525
428.803
432.002
435.12
438.16
441.122
444.004
446.813
449.558
452.25
454.899
457.511
460.084
462.62
465.124
467.599
470.049
472.478
474.886
477.282
479.685
482.118
484.612
487.186
489.851
492.609
495.457
498.402
501.47
504.694
508.095
511.681
515.452
519.403
523.565
527.924
532.364
536.694
540.669
544.09
546.841
548.87
550.083
550.47
550.214
549.704
549.476
550.001
551.747
555.093
560.189
567.113
574.992
581.948
587.091
589.939
590.894
592.185
592.923
590.166
581.303
562.299
533.305
498.243
460.913
427.378
404.207
397.733
414.773
458.857
527.177
612.063
704.459
797.631
889.568
979.46
1062.129
1126.687
1158.419
1145.394
1085.072
984.03
856.231
716.62
575.638
441.765
319.989
214.645
131.656
71.968
33.188
10.055
-5.87
-19.081
-30.443
-39.549
-44.748
-46.516
-47.013
-48.155
-51.503
-57.663
-66.82
-78.747
-92.743
-108.151
-124.307
-140.729
-157.277
-173.577
-188.842
-202.663
-214.974
-225.861
-235.699
-244.788
-253.245
-261.418
-269.836
-278.74
-288.174
-298.064
-308.118
-318.102
-327.853
-337.086
-345.492
-352.883
-359.158
-364.303
-368.379
-371.409
-373.397
-374.379
-374.423
-373.629
-372.085
-369.861
-367.018
-363.624
-359.763
-355.534
-351.007
-346.221
-341.208
-335.985
-330.577
-325.019
-319.336
-313.548
-307.667
-301.693
-295.627
-289.48
-283.254
-276.951
-270.57
-264.105
-257.557
-250.944
-244.279
-237.576
-230.847
-224.097
-217.332
-210.56
-203.785
-197.013
-190.244
-183.48
-176.72
-169.969
-163.23
-156.508
-149.803
-143.11
-136.429
-129.766
-123.127
-116.524
-109.969
-103.479
-97.076
-90.789
-84.647
-78.679
-72.907
-67.35
-62.022
-56.938
-52.11
-47.555
-43.279
-39.274
-35.526
-32.01
-28.699
-25.569
-22.583
-19.696
-16.865
-14.053
-11.234
-8.395
-5.535
-2.661
0.213
3.08
5.905
8.628
11.172
13.429
15.294
16.673
17.462
17.543
16.806
15.139
12.446
8.667
3.754
-2.323
-9.582
-18.054
-27.725
-38.537
-50.401
-63.176
-76.718
-90.9
-105.578
-120.585
-135.751
-150.89
-165.819
-180.405
-194.52
-208.047
-220.876
-232.874
-243.95
-254.059
-263.191
-271.383
-278.68
-285.11
-290.719
-295.585
-299.796
-303.464
-306.713
-309.615
-312.245
-314.675
-316.979
-319.252
-321.571
-323.974
-326.478
-329.08
-331.773
-334.562
-337.446
-340.394
-343.369
-346.321
-349.19
-351.952
-354.588
-357.077
-359.401
-361.533
-363.454
-365.167
-366.688
-368.032
-369.214
-370.247
-371.143
-371.931
-372.644
-373.316
-373.985
-374.675
-375.404
-376.19
-377.047
-377.989
-379.025
-380.157
-381.379
-382.69
-384.09
-385.575
-387.145
-388.793
-390.509
-392.283
-394.106
-395.967
-397.859
-399.773
-401.699
-403.63
-405.56
-407.482
-409.392
-411.283
-413.148
-414.98
-416.771
-418.515
-420.205
-421.834
-423.397
-424.889
-426.304
-427.639
-428.891
-430.058
-431.137
-432.126
-433.025
-433.832
-434.548
-435.172
-435.706
-436.151
-436.509
-436.782
-436.972
-437.082
-437.115
-437.075
-436.965
-436.788
-436.547
-436.247
-435.89
-435.482
-435.026
-434.525
-433.984
-433.406
-432.795
-432.154
-431.486
-430.793
-430.079
-429.345
-428.594
-427.827
-427.046
-426.253
-425.448
-424.634
-423.811
-422.98
-422.143
-421.301
-420.455
-419.605
-418.755
-417.904
-417.054
-416.206
-415.363
-414.523
-413.69
-412.865
-412.047
-411.238
-410.439
-409.651
-408.876
-408.113
-407.366
-406.634
-405.918
-405.221
-404.542
-403.883
-403.243
-402.624
-402.026
-401.448
-400.892
-400.356
-399.84
-399.344
-398.865
-398.403
-397.954
-397.516
-397.086
-396.66
-396.235
-395.807
-395.374
-394.93
-394.473
-394
-393.508
-392.993
-392.452
-391.882
-391.28
-390.644
-389.97
-389.257
-388.505
-387.714
-386.884
-386.019
-385.123
-384.198
-383.249
-382.283
-381.306
-380.327
-379.353
-378.391
-377.451
-376.543
-375.676
-374.861
-374.109
-373.426
-372.82
-372.297
-371.864
-371.53
-371.302
-371.176
-371.154
-371.233
-371.417
-371.712
-372.126
-372.657
-373.31
-374.086
-374.991
-376.03
-377.201
-378.487
-379.867
-381.308
-382.79
-384.301
-385.831
-387.378
-388.922
-390.427
-391.859
-393.183
-394.369
-395.394
-396.214
-396.763
-397.049
-397.162
-397.277
-397.669
-398.542
-400.006
-402.184
-405.161
-408.914
-413.261
-417.726
-421.575
-424.171
-425.041
-423.826
-420.374
-414.689
-407.077
-398.423
-389.98
-383.019
-378.823
-378.536
-382.954
-392.779
-407.505
-424.72
-441.786
-456
-466.474
-475.669
-484.662
-491.101
-488.313
-464.529
-410.888
-326.727
-218.793
-99.85
19.016
133.207
242.027
344.141
432.023
492.201
509.6
475.322
394.249
282.357
162.428
56.428
-25.487
-83.841
-126.65
-165.02
-203.405
-240.127
-270.364
-287.927
-291.016
-281.433
-262.157
-237.256
-209.504
-180.345
-150.967
-121.932
-93.568
-66.498
-41.355
-18.276
2.985
22.893
42.021
60.729
79.172
97.777
117.307
138.211
160.603
184.397
209.246
234.84
260.983
287.268
313.04
337.865
361.52
383.892
405.114
425.343
444.665
463.288
481.496
499.436
517.167
534.686
551.865
568.584
584.774
600.326
615.15
629.193
642.405
654.772
666.298
676.962
686.749
695.653
703.645
710.721
716.907
722.22
726.722
730.502
733.613
736.117
738.09
739.593
740.714
741.548
742.161
742.608
742.935
743.177
743.389
743.63
743.933
744.34
744.87
745.528
746.365
747.424
748.712
750.229
751.934
753.761
755.682
757.685
759.753
761.884
764.06
766.254
768.464
770.683
772.898
775.094
777.218
779.218
781.073
782.778
784.347
785.819
787.204
788.497
789.702
790.808
791.804
792.68
793.402
793.936
794.255
794.341
794.191
793.802
793.155
792.22
790.963
789.339
787.313
784.856
781.933
778.517
774.588
770.13
765.14
759.618
753.564
746.974
739.846
732.176
723.97
715.236
705.985
696.234
686
675.302
664.166
652.616
640.676
628.372
615.728
602.767
589.517
576.006
562.26
548.311
534.188
519.922
505.546
491.091
476.589
462.07
447.565
433.103
418.713
404.421
390.255
376.24
362.401
348.76
335.34
322.16
309.239
296.594
284.239
272.188
260.452
249.039
237.959
227.215
216.813
206.756
197.043
187.677
178.653
169.971
161.625
153.61
145.92
138.546
131.479
124.71
118.227
112.019
106.075
100.381
94.925
89.694
84.673
79.848
75.207
70.733
66.414
62.235
58.181
54.24
50.398
46.643
42.963
39.345
35.78
32.257
28.767
25.301
21.851
18.408
14.968
11.523
8.069
4.6
1.114
-2.392
-5.922
-9.476
-13.057
-16.663
-20.295
-23.953
-27.635
-31.339
-35.063
-38.805
-42.56
-46.326
-50.097
-53.871
-57.641
-61.404
-65.155
-68.888
-72.599
-76.283
-79.936
-83.552
-87.129
-90.661
-94.145
-97.578
-100.957
-104.279
-107.542
-110.745
-113.886
-116.964
-119.98
-122.933
-125.824
-128.654
-131.424
-134.136
-136.793
-139.398
-141.952
-144.461
-146.927
-149.355
-151.749
-154.114
-156.455
-158.776
-161.082
-163.379
-165.672
-167.966
-170.265
-172.574
-174.898
-177.241
-179.607
-181.999
-184.42
-186.873
-189.359
-191.881
-194.438
-197.031
-199.66
-202.324
-205.02
-207.747
-210.5
-213.277
-216.072
-218.881
-221.696
-224.514
-227.325
-230.125
-232.904
-235.655
-238.369
-241.039
-243.654
-246.207
-248.686
-251.083
-253.389
-255.593
-257.686
-259.66
-261.505
-263.213
-264.775
-266.183
-267.43
-268.509
-269.413
-270.136
-270.673
-271.022
-271.179
-271.142
-270.911
-270.486
-269.869
-269.063
-268.071
-266.898
-265.549
-264.031
-262.35
-260.518
-258.542
-256.436
-254.211
-251.883
-249.467
-246.979
-244.438
-241.862
-239.272
-236.689
-234.133
-231.625
-229.187
-226.84
-224.602
-222.494
-220.535
-218.741
-217.128
-215.711
-214.505
-213.521
-212.767
-212.245
-211.954
-211.893
-212.061
-212.46
-213.091
-213.951
-215.04
-216.356
-217.899
-219.666
-221.643
-223.803
-226.113
-228.539
-231.052
-233.639
-236.286
-238.974
-241.669
-244.324
-246.899
-249.35
-251.642
-253.721
-255.497
-256.948
-258.126
-259.151
-260.234
-261.558
-263.199
-265.293
-268.033
-271.392
-275.251
-279.352
-283.1
-286.055
-288
-288.502
-287.145
-283.893
-278.773
-272.129
-264.943
-257.959
-251.748
-247.317
-245.72
-247.766
-254.254
-265.613
-280.451
-296.359
-311.419
-323.128
-331.729
-340.534
-348.817
-352.967
-344.297
-308.804
-240.752
-142.986
-25.514
95.791
212.987
325.575
434.89
540.579
632.87
695.179
712.579
678.032
595.296
478.516
345.441
211.833
91.041
-9.598
-86.924
-140.889
-176.331
-199.423
-216.003
-229.5
-239.625
-244.105
-241.092
-231.456
-217.734
-202.867
-189.357
-177.83
-168.364
-161.491
-157.06
-154.662
-153.877
-153.863
-154.103
-154.51
-154.648
-153.748
-151.406
-147.522
-142.239
-136.058
-129.356
-122.327
-115.382
-109.112
-103.888
-99.892
-97.137
-95.411
-94.508
-94.276
-94.465
-94.767
-94.973
-94.942
-94.583
-93.875
-92.798
-91.332
-89.504
-87.37
-84.973
-82.346
-79.513
-76.496
-73.335
-70.079
-66.763
-63.402
-59.999
-56.565
-53.131
-49.744
-46.439
-43.224
-40.098
-37.053
-34.086
-31.198
-28.377
-25.6
-22.841
-20.078
-17.301
-14.51
-11.707
-8.878
-5.999
-3.037
0.032
3.228
6.565
10.058
13.726
17.583
21.631
25.865
30.281
34.883
39.682
44.683
49.881
55.263
60.806
66.484
72.278
78.16
84.094
90.051
96.002
101.936
107.857
113.756
119.617
125.41
131.093
136.636
142.025
147.247
152.292
157.153
161.814
166.279
170.571
174.688
178.605
182.273
185.605
188.541
191.042
193.078
194.637
195.695
196.211
196.157
195.513
194.249
192.343
189.749
186.395
182.252
177.329
171.667
165.36
158.475
151.057
143.156
134.812
126.073
116.999
107.634
98.01
88.172
78.175
68.093
58.029
48.05
38.195
28.48
18.886
9.41
0.067
-9.133
-18.182
-27.07
-35.787
-44.311
-52.602
-60.638
-68.404
-75.899
-83.138
-90.123
-96.841
-103.274
-109.394
-115.179
-120.619
-125.699
-130.403
-134.725
-138.66
-142.216
-145.41
-148.256
-150.764
-152.941
-154.795
-156.334
-157.575
-158.532
-159.223
-159.664
-159.873
-159.869
-159.674
-159.306
-158.782
-158.118
-157.327
-156.422
-155.417
-154.327
-153.165
-151.942
-150.671
-149.365
-148.034
-146.691
-145.343
-144
-142.668
-141.352
-140.059
-138.792
-137.555
-136.348
-135.175
-134.035
-132.93
-131.857
-130.816
-129.805
-128.822
-127.863
-126.925
-126.005
-125.099
-124.202
-123.31
-122.419
-121.524
-120.622
-119.707
-118.776
-117.825
-116.85
-115.846
-114.812
-113.742
-112.634
-111.485
-110.293
-109.055
-107.771
-106.438
-105.056
-103.625
-102.145
-100.616
-99.039
-97.415
-95.745
-94.032
-92.276
-90.482
-88.651
-86.786
-84.892
-82.971
-81.027
-79.064
-77.085
-75.096
-73.099
-71.099
-69.1
-67.105
-65.12
-63.147
-61.191
-59.255
-57.344
-55.46
-53.606
-51.787
-50.004
-48.26
-46.559
-44.901
-43.289
-41.724
-40.208
-38.742
-37.327
-35.962
-34.648
-33.384
-32.17
-31.004
-29.885
-28.811
-27.78
-26.79
-25.838
-24.92
-24.035
-23.178
-22.346
-21.536
-20.745
-19.967
-19.2
-18.439
-17.68
-16.92
-16.154
-15.378
-14.589
-13.782
-12.954
-12.1
-11.218
-10.303
-9.353
-8.365
-7.335
-6.261
-5.14
-3.972
-2.754
-1.486
-0.166
1.206
2.631
4.107
5.635
7.214
8.843
10.52
12.246
14.018
15.834
17.693
19.593
21.531
23.506
25.515
27.556
29.627
31.724
33.846
35.989
38.151
40.329
42.521
44.723
46.933
49.148
51.366
53.584
55.801
58.013
60.219
62.418
64.608
66.787
68.953
71.107
73.245
75.368
77.474
79.561
81.629
83.675
85.7
87.7
89.675
91.624
93.544
95.433
97.292
99.116
100.906
102.658
104.372
106.045
107.675
109.262
110.802
112.294
113.736
115.126
116.461
117.74
118.959
120.116
121.209
122.235
123.191
124.074
124.883
125.613
126.264
126.833
127.318
127.718
128.031
128.256
128.392
128.439
128.396
128.263
128.04
127.729
127.328
126.84
126.266
125.607
124.865
124.041
123.138
122.159
121.107
119.984
118.794
117.543
116.234
114.872
113.465
112.017
110.536
109.028
107.501
105.964
104.422
102.885
101.361
99.856
98.381
96.942
95.548
94.207
92.927
91.718
90.586
89.541
88.59
87.74
87.001
86.379
85.881
85.515
85.288
85.205
85.273
85.498
85.884
86.434
87.152
88.038
89.094
90.319
91.712
93.268
94.986
96.859
98.884
101.053
103.36
105.795
108.35
111.014
113.775
116.621
119.537
122.507
125.514
128.538
131.56
134.558
137.512
140.398
143.196
145.883
148.44
150.846
153.084
155.135
156.981
158.607
159.999
161.145
162.037
162.67
163.046
163.169
163.042
162.67
162.053
161.19
160.081
158.722
157.111
155.25
153.142
150.804
148.27
145.569
142.736
139.799
136.766
133.664
130.527
127.395
124.324
121.365
118.563
115.993
113.755
111.896
110.399
109.167
108.004
106.743
105.277
103.465
101.113
98.117
94.564
90.727
87.067
84.022
81.851
80.813
81.36
83.842
88.242
94.237
101.181
108.25
114.821
120.213
123.317
122.922
118.173
108.63
94.177
75.994
56.591
38.463
24.688
16.759
12.489
11.072
15.142
30.782
69.564
141.061
245.642
377.383
524.669
674.299
819.51
955.325
1074
1166.068
1216.999
1213.025
1150.276
1034.775
882.905
718.097
561.449
427.455
324.341
252.641
208.796
190.06
190.448
202.551
219.321
231.081
233.217
226.965
216.188
208.707
208.934
216.614
229.377
242.243
252.558
260.242
265.971
271.624
277.821
283.832
289.043
292.854
295.125
296.506
297.637
298.732
299.981
301.546
303.5
305.944
308.829
311.754
314.236
316.054
317.149
317.606
317.619
317.332
316.902
316.569
316.604
317.173
318.34
320.086
322.328
324.997
328.044
331.404
335.002
338.769
342.642
346.564
350.488
354.36
358.119
361.722
365.139
368.351
371.354
374.156
376.766
379.202
381.484
383.626
385.642
387.542
389.34
391.05
392.692
394.284
395.845
397.393
398.945
400.517
402.121
403.769
405.468
407.227
409.053
410.952
412.933
415.003
417.169
419.436
421.806
424.278
426.853
429.523
432.281
435.115
438.012
440.958
443.939
446.935
449.929
452.9
455.829
458.695
461.474
464.14
466.665
469.019
471.173
473.096
474.756
476.122
477.158
477.836
478.127
478.005
477.442
476.407
474.868
472.798
470.177
466.99
463.226
458.876
453.936
448.413
442.326
435.694
428.538
420.869
412.683
403.986
394.786
385.093
374.924
364.281
353.151
341.533
329.431
316.845
303.781
290.224
276.133
261.488
246.279
230.522
214.267
197.558
180.439
162.974
145.233
127.312
109.335
91.407
73.609
56.03
38.752
21.883
5.563
-10.098
-25.017
-39.137
-52.438
-64.901
-76.508
-87.276
-97.249
-106.496
-115.123
-123.207
-130.798
-137.955
-144.733
-151.209
-157.486
-163.643
-169.73
-175.791
-181.849
-187.93
-194.063
-200.247
-206.456
-212.65
-218.771
-224.782
-230.673
-236.43
-242.044
-247.499
-252.767
-257.841
-262.729
-267.437
-271.973
-276.345
-280.556
-284.622
-288.577
-292.455
-296.297
-300.131
-303.974
-307.842
-311.749
-315.708
-319.728
-323.815
-327.964
-332.175
-336.449
-340.79
-345.201
-349.683
-354.23
-358.836
-363.498
-368.211
-372.973
-377.78
-382.629
-387.517
-392.443
-397.407
-402.409
-407.448
-412.52
-417.622
-422.749
-427.897
-433.06
-438.233
-443.409
-448.582
-453.747
-458.897
-464.028
-469.133
-474.206
-479.242
-484.233
-489.174
-494.058
-498.88
-503.631
-508.307
-512.902
-517.408
-521.823
-526.139
-530.353
-534.46
-538.457
-542.341
-546.108
-549.757
-553.286
-556.694
-559.983
-563.152
-566.204
-569.142
-571.97
-574.69
-577.31
-579.834
-582.268
-584.62
-586.895
-589.101
-591.246
-593.337
-595.384
-597.394
-599.375
-601.337
-603.287
-605.234
-607.187
-609.152
-611.136
-613.147
-615.19
-617.269
-619.39
-621.556
-623.768
-626.029
-628.338
-630.695
-633.098
-635.544
-638.028
-640.545
-643.088
-645.649
-648.22
-650.791
-653.352
-655.892
-658.399
-660.861
-663.265
-665.6
-667.851
-670.005
-672.05
-673.971
-675.758
-677.395
-678.872
-680.178
-681.3
-682.229
-682.957
-683.475
-683.775
-683.852
-683.702
-683.32
-682.704
-681.855
-680.772
-679.457
-677.915
-676.15
-674.17
-671.981
-669.593
-667.016
-664.262
-661.342
-658.269
-655.057
-651.72
-648.273
-644.73
-641.107
-637.42
-633.683
-629.912
-626.122
-622.328
-618.545
-614.785
-611.063
-607.39
-603.779
-600.24
-596.785
-593.422
-590.159
-587.004
-583.964
-581.042
-578.243
-575.57
-573.022
-570.602
-568.306
-566.135
-564.083
-562.148
-560.326
-558.61
-556.995
-555.474
-554.041
-552.687
-551.405
-550.186
-549.022
-547.905
-546.826
-545.778
-544.752
-543.741
-542.738
-541.734
-540.724
-539.699
-538.653
-537.579
-536.471
-535.325
-534.135
-532.896
-531.606
-530.262
-528.861
-527.402
-525.884
-524.306
-522.667
-520.969
-519.211
-517.394
-515.52
-513.59
-511.608
-509.576
-507.5
-505.384
-503.235
-501.059
-498.864
-496.655
-494.44
-492.225
-490.018
-487.825
-485.653
-483.512
-481.409
-479.355
-477.362
-475.442
-473.607
-471.866
-470.227
-468.695
-467.272
-465.962
-464.772
-463.709
-462.784
-462.015
-461.423
-461.031
-460.86
-460.921
-461.217
-461.745
-462.501
-463.478
-464.662
-466.048
-467.636
-469.423
-471.4
-473.544
-475.812
-478.139
-480.445
-482.637
-484.615
-486.3
-487.632
-488.575
-489.11
-489.22
-488.902
-488.16
-487.002
-485.457
-483.571
-481.375
-478.913
-476.319
-473.801
-471.628
-470.063
-469.246
-469.225
-470.09
-471.981
-474.907
-478.691
-482.961
-487.226
-491.081
-494.26
-496.438
-497.747
-499.042
-501.084
-504.147
-506.583
-505.312
-498.923
-489.128
-481.572
-482.796
-495.357
-516.856
-540.611
-559.488
-569.184
-565.804
-545.425
-503.363
-433.878
-337.125
-218.319
-85.16
50.886
182.717
305.265
410.738
493.387
543.634
552.134
517.522
441.896
336.005
216.207
96.689
-8.612
-91.311
-148.847
-182.021
-195.708
-195.684
-187.675
-174.96
-158.766
-140.018
-118.549
-96.002
-75.027
-57.228
-44.347
-36.979
-34.018
-33.964
-34.942
-34.885
-32.503
-27.318
-19.013
-7.481
6.912
23.57
41.565
59.643
76.936
93.058
107.749
120.893
132.507
142.633
151.489
159.472
166.869
173.848
180.511
186.911
193.121
199.246
205.401
211.676
218.133
224.827
231.795
239.057
246.623
254.482
262.597
270.926
279.426
288.045
296.759
305.551
314.397
323.285
332.168
340.978
349.675
358.234
366.638
374.893
382.997
390.945
398.754
406.452
414.059
421.602
429.093
436.531
443.925
451.28
458.613
465.956
473.333
480.759
488.253
495.825
503.486
511.255
519.137
527.133
535.253
543.499
551.871
560.371
568.992
577.714
586.523
595.398
604.309
613.235
622.158
631.065
639.958
648.837
657.693
666.51
675.261
683.913
692.455
700.873
709.156
717.311
725.337
733.236
741.034
748.736
756.321
763.754
770.962
777.862
784.393
790.507
796.167
801.348
806.006
810.1
813.597
816.45
818.614
820.037
820.639
820.363
819.198
817.156
814.296
810.706
806.446
801.572
796.138
790.185
783.763
776.927
769.711
762.162
754.336
746.302
738.155
729.981
721.829
713.731
705.689
697.681
689.705
681.764
673.855
665.989
658.178
650.435
642.789
635.271
627.896
620.674
613.596
606.654
599.854
593.21
586.744
580.487
574.46
568.683
563.175
557.949
553.012
548.365
543.999
539.899
536.055
532.458
529.102
525.982
523.086
520.402
517.917
515.613
513.475
511.485
509.625
507.876
506.223
504.65
503.144
501.696
500.293
498.925
497.581
496.25
494.921
493.586
492.234
490.856
489.444
487.99
486.488
484.933
483.32
481.645
479.905
478.096
476.217
474.265
472.239
470.137
467.959
465.704
463.372
460.962
458.475
455.911
453.271
450.556
447.767
444.904
441.968
438.96
435.882
432.733
429.515
426.228
422.873
419.452
415.967
412.418
408.808
405.139
401.413
397.632
393.8
389.919
385.993
382.025
378.021
373.983
369.917
365.829
361.723
357.606
353.483
349.361
345.246
341.145
337.063
333.009
328.988
325.008
321.074
317.194
313.373
309.619
305.937
302.333
298.812
295.379
292.038
288.795
285.651
282.609
279.672
276.841
274.116
271.498
268.984
266.572
264.261
262.047
259.924
257.888
255.934
254.053
252.241
250.488
248.786
247.128
245.504
243.903
242.318
240.737
239.152
237.55
235.924
234.261
232.553
230.789
228.96
227.056
225.068
222.987
220.804
218.513
216.106
213.577
210.92
208.13
205.203
202.137
198.928
195.576
192.079
188.438
184.654
180.728
176.664
172.465
168.136
163.681
159.106
154.419
149.626
144.736
139.756
134.696
129.563
124.37
119.124
113.838
108.522
103.186
97.842
92.503
87.178
81.881
76.621
71.411
66.259
61.178
56.177
51.265
46.451
41.744
37.151
32.68
28.338
24.129
20.06
16.132
12.349
8.713
5.222
1.874
-1.333
-4.402
-7.339
-10.146
-12.828
-15.393
-17.847
-20.197
-22.452
-24.618
-26.706
-28.727
-30.693
-32.611
-34.49
-36.335
-38.153
-39.951
-41.732
-43.502
-45.265
-47.026
-48.796
-50.58
-52.383
-54.206
-56.051
-57.91
-59.775
-61.634
-63.468
-65.261
-66.999
-68.666
-70.254
-71.743
-73.112
-74.338
-75.402
-76.294
-77.01
-77.528
-77.825
-77.885
-77.722
-77.397
-76.963
-76.423
-75.817
-75.218
-74.773
-74.739
-75.254
-76.294
-77.855
-79.953
-82.492
-85.345
-88.093
-89.91
-90.248
-88.887
-85.65
-80.561
-73.825
-65.654
-56.799
-48.848
-43.114
-40.553
-42.102
-47.376
-54.81
-63.135
-70.425
-76.447
-83.953
-93.114
-101.52
-101.837
-81.855
-35.756
35.534
123.667
214.637
301.945
383.847
460.328
532.038
589.474
619.582
613.231
565.076
483.309
384.184
282.768
194.252
124.241
69.727
26.643
-12.141
-49.786
-84.355
-113.316
-132.722
-140.906
-139.102
-129.864
-116.801
-102.476
-88.318
-75.209
-63.421
-53.623
-46.902
-43.527
-43.208
-45.442
-49.424
-54.666
-60.958
-67.675
-73.819
-78.769
-82.268
-84.335
-85.312
-85.449
-84.858
-83.895
-83.144
-82.996
-83.637
-85.086
-87.139
-89.59
-92.296
-95.046
-97.574
-99.715
-101.391
-102.573
-103.324
-103.705
-103.753
-103.529
-103.096
-102.496
-101.764
-100.933
-100.029
-99.093
-98.182
-97.329
-96.563
-95.901
-95.346
-94.904
-94.574
-94.344
-94.198
-94.121
-94.106
-94.146
-94.236
-94.368
-94.524
-94.688
-94.841
-94.967
-95.047
-95.062
-94.996
-94.831
-94.554
-94.152
-93.615
-92.932
-92.089
-91.071
-89.86
-88.445
-86.821
-84.985
-82.938
-80.688
-78.247
-75.634
-72.875
-69.995
-67.019
-63.967
-60.855
-57.7
-54.515
-51.318
-48.129
-44.959
-41.807
-38.667
-35.526
-32.365
-29.17
-25.913
-22.558
-19.079
-15.46
-11.69
-7.779
-3.74
0.404
4.626
8.902
13.192
17.428
21.53
25.399
28.934
32.047
34.638
36.588
37.803
38.196
37.691
36.236
33.793
30.319
25.793
20.197
13.527
5.825
-2.834
-12.351
-22.614
-33.525
-44.969
-56.805
-68.901
-81.127
-93.347
-105.444
-117.298
-128.76
-139.705
-150.011
-159.56
-168.287
-176.156
-183.154
-189.286
-194.554
-198.972
-202.584
-205.439
-207.586
-209.095
-210.028
-210.469
-210.543
-210.358
-210.017
-209.627
-209.26
-208.966
-208.792
-208.765
-208.906
-209.233
-209.75
-210.452
-211.341
-212.403
-213.624
-214.973
-216.39
-217.83
-219.254
-220.623
-221.917
-223.126
-224.236
-225.251
-226.184
-227.043
-227.843
-228.6
-229.321
-230.02
-230.715
-231.426
-232.182
-233.009
-233.919
-234.927
-236.039
-237.259
-238.59
-240.025
-241.552
-243.162
-244.843
-246.585
-248.382
-250.224
-252.099
-253.997
-255.906
-257.816
-259.717
-261.602
-263.463
-265.291
-267.08
-268.826
-270.524
-272.171
-273.761
-275.291
-276.755
-278.149
-279.469
-280.712
-281.874
-282.952
-283.945
-284.85
-285.668
-286.397
-287.039
-287.594
-288.064
-288.45
-288.755
-288.982
-289.132
-289.21
-289.219
-289.161
-289.041
-288.862
-288.627
-288.34
-288.006
-287.628
-287.211
-286.759
-286.276
-285.769
-285.241
-284.697
-284.143
-283.582
-283.021
-282.465
-281.917
-281.383
-280.868
-280.375
-279.909
-279.473
-279.071
-278.706
-278.379
-278.093
-277.849
-277.647
-277.49
-277.376
-277.305
-277.278
-277.292
-277.348
-277.442
-277.573
-277.738
-277.934
-278.155
-278.398
-278.658
-278.927
-279.201
-279.47
-279.729
-279.969
-280.182
-280.358
-280.49
-280.567
-280.579
-280.517
-280.372
-280.132
-279.789
-279.334
-278.757
-278.053
-277.212
-276.229
-275.097
-273.811
-272.366
-270.758
-268.984
-267.041
-264.927
-262.643
-260.189
-257.568
-254.783
-251.838
-248.741
-245.499
-242.123
-238.624
-235.015
-231.312
-227.531
-223.689
-219.802
-215.887
-211.96
-208.036
-204.13
-200.258
-196.435
-192.676
-188.997
-185.411
-181.93
-178.566
-175.323
-172.201
-169.201
-166.325
-163.578
-160.974
-158.526
-156.242
-154.135
-152.217
-150.495
-148.972
-147.633
-146.449
-145.401
-144.47
-143.657
-142.964
-142.376
-141.867
-141.4
-140.92
-140.389
-139.755
-138.93
-137.882
-136.634
-135.261
-133.952
-132.871
-132.105
-131.788
-132.024
-132.715
-133.675
-134.564
-134.853
-134.242
-132.552
-129.456
-124.825
-118.846
-111.87
-104.623
-97.992
-92.43
-88.399
-86.71
-87.933
-92.38
-100.003
-110.131
-122.069
-135.439
-149.472
-161.952
-169.929
-170.903
-163.245
-147.984
-127.233
-100.349
-65.236
-18.516
43.721
120.55
207.859
301.419
394.992
482.863
559.426
614.003
635.641
617.125
555.426
460.194
348.968
239.287
148.397
82.052
36.641
6.224
-18.763
-42.378
-63.096
-78.814
-85.515
-81.895
-70.299
-53.876
-36.507
-20.985
-8.227
1.696
9.144
14.258
16.993
17.762
17.38
16.906
17.233
18.641
21.017
24.312
28.621
33.878
39.799
45.828
51.288
55.85
59.48
62.185
63.954
64.805
64.81
64.199
63.353
62.55
61.949
61.645
61.663
62.037
62.806
63.973
65.489
67.307
69.377
71.665
74.158
76.835
79.66
82.588
85.56
88.52
91.42
94.226
96.92
99.488
101.924
104.226
106.4
108.459
110.425
112.313
114.133
115.895
117.608
119.29
120.959
122.634
124.331
126.062
127.841
129.677
131.581
133.562
135.626
137.777
140.018
142.355
144.792
147.335
149.988
152.754
155.634
158.629
161.739
164.962
168.294
171.729
175.26
178.878
182.575
186.34
190.159
194.02
197.909
201.809
205.705
209.578
213.411
217.185
220.881
224.477
227.955
231.295
234.476
237.478
240.281
242.867
245.217
247.313
249.136
250.671
251.901
252.813
253.393
253.629
253.511
253.03
252.18
250.955
249.353
247.371
245.012
242.276
239.169
235.697
231.868
227.691
223.178
218.342
213.198
207.763
202.054
196.091
189.893
183.481
176.879
170.109
163.194
156.159
149.028
141.827
134.58
127.312
120.049
112.816
105.635
98.532
91.528
84.645
77.905
71.326
64.927
58.726
52.737
46.976
41.454
36.184
31.174
26.433
21.967
17.78
13.875
10.254
6.916
3.86
1.082
-1.422
-3.658
-5.633
-7.355
-8.834
-10.081
-11.106
-11.922
-12.542
-12.979
-13.248
-13.361
-13.334
-13.181
-12.916
-12.553
-12.106
-11.589
-11.014
-10.394
-9.741
-9.067
-8.381
-7.694
-7.015
-6.352
-5.712
-5.103
-4.528
-3.994
-3.505
-3.063
-2.672
-2.332
-2.046
-1.813
-1.632
-1.503
-1.423
-1.391
-1.403
-1.457
-1.548
-1.673
-1.827
-2.007
-2.208
-2.426
-2.657
-2.898
-3.143
-3.39
-3.636
-3.877
-4.111
-4.335
-4.548
-4.748
-4.934
-5.105
-5.261
-5.402
-5.527
-5.637
-5.734
-5.816
-5.887
-5.947
-5.998
-6.041
-6.079
-6.115
-6.149
-6.186
-6.227
-6.274
-6.331
-6.398
-6.479
-6.575
-6.687
-6.817
-6.966
-7.134
-7.321
-7.527
-7.752
-7.994
-8.252
-8.523
-8.806
-9.097
-9.393
-9.692
-9.989
-10.281
-10.564
-10.834
-11.088
-11.32
-11.527
-11.705
-11.85
-11.957
-12.022
-12.041
-12.011
-11.928
-11.79
-11.592
-11.333
-11.011
-10.624
-10.171
-9.652
-9.065
-8.413
-7.696
-6.917
-6.077
-5.181
-4.233
-3.237
-2.198
-1.122
-0.016
1.115
2.263
3.421
4.582
5.738
6.882
8.006
9.101
10.161
11.177
12.141
13.047
13.887
14.653
15.34
15.942
16.451
16.864
17.175
17.38
17.475
17.458
17.327
17.079
16.715
16.236
15.641
14.934
14.117
13.193
12.166
11.042
9.825
8.522
7.138
5.68
4.155
2.57
0.933
-0.749
-2.467
-4.215
-5.985
-7.768
-9.558
-11.346
-13.127
-14.893
-16.636
-18.352
-20.035
-21.678
-23.276
-24.827
-26.325
-27.767
-29.152
-30.478
-31.743
-32.947
-34.091
-35.176
-36.202
-37.172
-38.088
-38.952
-39.768
-40.54
-41.27
-41.964
-42.624
-43.256
-43.865
-44.453
-45.027
-45.589
-46.146
-46.699
-47.255
-47.816
-48.386
-48.969
-49.568
-50.186
-50.826
-51.49
-52.179
-52.894
-53.636
-54.405
-55.2
-56.02
-56.864
-57.731
-58.617
-59.52
-60.439
-61.37
-62.309
-63.253
-64.198
-65.14
-66.076
-67
-67.908
-68.795
-69.657
-70.491
-71.291
-72.054
-72.775
-73.451
-74.077
-74.65
-75.166
-75.622
-76.016
-76.344
-76.606
-76.799
-76.924
-76.981
-76.968
-76.889
-76.745
-76.538
-76.27
-75.944
-75.564
-75.133
-74.656
-74.138
-73.584
-73
-72.394
-71.776
-71.154
-70.539
-69.941
-69.37
-68.835
-68.348
-67.917
-67.548
-67.248
-67.025
-66.886
-66.842
-66.9
-67.065
-67.344
-67.741
-68.261
-68.908
-69.68
-70.573
-71.583
-72.711
-73.964
-75.357
-76.898
-78.589
-80.432
-82.425
-84.561
-86.833
-89.218
-91.682
-94.186
-96.698
-99.191
-101.649
-104.045
-106.339
-108.485
-110.422
-112.105
-113.513
-114.626
-115.427
-115.923
-116.121
-116.057
-115.819
-115.493
-115.154
-114.887
-114.746
-114.8
-115.18
-116.057
-117.55
-119.7
-122.429
-125.523
-128.776
-131.978
-134.79
-136.779
-137.636
-137.228
-135.718
-133.813
-132.325
-131.972
-133.735
-137.806
-143.254
-149.422
-155.117
-160.493
-167.843
-176.557
-183.784
-182.615
-162.485
-119.248
-54.356
25.214
108.012
189.503
268.968
345.122
415.875
471.465
500.1
495.83
458.775
396.391
318.859
234.474
149.052
67.693
-3.135
-58.932
-97.228
-119.302
-131.795
-139.423
-144.592
-147.9
-146.843
-141.057
-132.236
-122.212
-113.368
-106.578
-101.468
-97.854
-95.317
-93.52
-92.464
-91.853
-91.407
-91.19
-91.143
-91.013
-90.718
-90.118
-88.936
-87.175
-84.904
-82.107
-79.003
-75.938
-73.065
-70.523
-68.471
-66.867
-65.64
-64.706
-63.817
-62.708
-61.235
-59.297
-56.846
-53.91
-50.498
-46.629
-42.376
-37.811
-32.992
-27.968
-22.763
-17.402
-11.932
-6.412
-0.908
4.525
9.854
15.052
20.101
24.987
29.702
34.245
38.628
42.856
46.932
50.858
54.633
58.26
61.751
65.116
68.371
71.53
74.606
77.612
80.561
83.464
86.333
89.177
92.005
94.827
97.657
100.505
103.387
106.313
109.297
112.347
115.476
118.691
121.999
125.405
128.913
132.525
136.242
140.063
143.985
148.006
152.118
156.314
160.587
164.924
169.313
173.74
178.189
182.643
187.084
191.493
195.85
200.134
204.322
208.393
212.326
216.098
219.685
223.066
226.22
229.123
231.757
234.1
236.134
237.841
239.206
240.213
240.851
241.107
240.973
240.441
239.506
238.164
236.414
234.258
231.696
228.736
225.383
221.648
217.541
213.076
208.268
203.134
197.692
191.962
185.966
179.725
173.264
166.608
159.781
152.81
145.722
138.544
131.303
124.028
116.746
109.483
102.267
95.124
88.08
81.159
74.386
67.783
61.372
55.173
49.206
43.488
38.036
32.864
27.984
23.409
19.147
15.208
11.596
8.317
5.374
2.769
0.502
-1.428
-3.024
-4.289
-5.229
-5.85
-6.16
-6.167
-5.881
-5.312
-4.472
-3.373
-2.028
-0.45
1.347
3.349
5.542
7.909
10.437
13.109
15.912
18.829
21.845
24.947
28.12
31.349
34.62
37.922
41.239
44.56
47.873
51.166
54.427
57.645
60.811
63.914
66.944
69.893
72.753
75.516
78.173
80.72
83.149
85.455
87.633
89.678
91.586
93.354
94.979
96.46
97.793
98.979
100.016
100.903
101.642
102.233
102.676
102.972
103.124
103.132
103
102.73
102.325
101.787
101.122
100.332
99.422
98.396
97.259
96.016
94.671
93.231
91.7
90.085
88.39
86.621
84.785
82.887
80.932
78.928
76.878
74.789
72.665
70.513
68.337
66.141
63.931
61.711
59.486
57.259
55.035
52.817
50.61
48.416
46.238
44.079
41.942
39.829
37.741
35.681
33.649
31.648
29.676
27.736
25.827
23.949
22.101
20.284
18.495
16.735
15
13.291
11.606
9.942
8.298
6.672
5.062
3.467
1.883
0.31
-1.256
-2.815
-4.372
-5.926
-7.481
-9.037
-10.597
-12.163
-13.735
-15.314
-16.903
-18.501
-20.108
-21.727
-23.355
-24.994
-26.643
-28.3
-29.965
-31.637
-33.312
-34.991
-36.669
-38.345
-40.015
-41.678
-43.328
-44.964
-46.581
-48.176
-49.745
-51.283
-52.786
-54.249
-55.67
-57.043
-58.363
-59.627
-60.83
-61.968
-63.038
-64.035
-64.956
-65.798
-66.557
-67.231
-67.818
-68.314
-68.718
-69.03
-69.247
-69.37
-69.398
-69.331
-69.171
-68.918
-68.574
-68.141
-67.622
-67.019
-66.335
-65.575
-64.742
-63.841
-62.877
-61.855
-60.78
-59.658
-58.495
-57.297
-56.071
-54.822
-53.557
-52.281
-51.003
-49.727
-48.46
-47.209
-45.98
-44.778
-43.608
-42.478
-41.39
-40.352
-39.366
-38.438
-37.571
-36.768
-36.034
-35.37
-34.779
-34.263
-33.823
-33.461
-33.176
-32.969
-32.839
-32.786
-32.808
-32.904
-33.071
-33.309
-33.614
-33.985
-34.418
-34.91
-35.458
-36.059
-36.71
-37.406
-38.145
-38.921
-39.732
-40.574
-41.442
-42.334
-43.244
-44.17
-45.107
-46.051
-46.999
-47.947
-48.891
-49.829
-50.758
-51.674
-52.576
-53.461
-54.327
-55.172
-55.995
-56.794
-57.566
-58.31
-59.024
-59.705
-60.353
-60.965
-61.54
-62.076
-62.572
-63.025
-63.434
-63.797
-64.114
-64.381
-64.598
-64.765
-64.879
-64.941
-64.95
-64.905
-64.806
-64.653
-64.447
-64.187
-63.874
-63.509
-63.091
-62.622
-62.102
-61.534
-60.919
-60.259
-59.559
-58.827
-58.069
-57.294
-56.51
-55.726
-54.951
-54.193
-53.457
-52.747
-52.068
-51.425
-50.823
-50.27
-49.77
-49.331
-48.957
-48.648
-48.407
-48.228
-48.1
-48.02
-47.986
-48.001
-48.082
-48.242
-48.491
-48.841
-49.305
-49.885
-50.574
-51.358
-52.208
-53.108
-54.052
-55.039
-56.068
-57.118
-58.146
-59.104
-59.938
-60.593
-61.007
-61.156
-61.059
-60.802
-60.536
-60.418
-60.571
-61.08
-62.014
-63.285
-64.639
-65.785
-66.381
-66.17
-65.089
-63.109
-60.162
-56.508
-52.721
-49.339
-46.911
-45.809
-46.108
-48.03
-52.074
-58.357
-66.531
-76.315
-87.44
-99.664
-112.843
-125.565
-135.01
-139.06
-136.549
-128.268
-116.331
-100.133
-76.586
-40.724
12.256
82.039
164.27
252.579
340.098
422.105
494.264
550.631
583.227
584.513
550.553
482.389
389.693
286.332
186.329
103.626
43.413
4.011
-19.631
-37.101
-53.369
-68.764
-82.076
-89.216
-89.15
-83.863
-75.508
-67.295
-60.904
-56.252
-53.299
-51.635
-50.702
-50.445
-50.835
-51.432
-51.961
-52.224
-51.841
-50.788
-49.284
-47.277
-44.626
-41.429
-37.763
-33.866
-30.243
-27.112
-24.494
-22.48
-21.125
-20.417
-20.352
-20.763
-21.306
-21.749
-21.94
-21.772
-21.227
-20.278
-18.884
-17.056
-14.851
-12.322
-9.522
-6.486
-3.219
0.259
3.917
7.714
11.595
15.509
19.412
23.271
27.068
30.785
34.413
37.95
41.399
44.771
48.081
51.341
54.553
57.725
60.862
63.977
67.084
70.193
73.318
76.466
79.646
82.864
86.127
89.44
92.804
96.222
99.693
103.218
106.799
110.438
114.135
117.889
121.698
125.561
129.474
133.433
137.431
141.462
145.516
149.586
153.66
157.726
161.774
165.789
169.758
173.665
177.496
181.233
184.862
188.364
191.724
194.925
197.949
200.781
203.405
205.805
207.966
209.875
211.518
212.884
213.962
214.74
215.212
215.37
215.208
214.721
213.907
212.764
211.292
209.494
207.373
204.935
202.185
199.133
195.788
192.161
188.267
184.118
179.73
175.119
170.304
165.303
160.135
154.82
149.379
143.833
138.204
132.512
126.779
121.026
115.274
109.544
103.855
98.227
92.678
87.225
81.885
76.674
71.605
66.693
61.948
57.383
53.004
48.822
44.841
41.068
37.505
34.155
31.019
28.096
25.384
22.881
20.581
18.48
16.572
14.847
13.299
11.918
10.693
9.615
8.673
7.854
7.148
6.542
6.024
5.583
5.208
4.885
4.605
4.356
4.127
3.91
3.693
3.47
3.231
2.97
2.679
2.353
1.987
1.575
1.115
0.603
0.037
-0.586
-1.265
-2.002
-2.796
-3.646
-4.551
-5.508
-6.516
-7.572
-8.671
-9.81
-10.986
-12.194
-13.429
-14.687
-15.963
-17.252
-18.548
-19.847
-21.144
-22.434
-23.711
-24.973
-26.213
-27.429
-28.616
-29.771
-30.89
-31.969
-33.006
-33.998
-34.942
-35.835
-36.676
-37.461
-38.19
-38.86
-39.47
-40.019
-40.507
-40.932
-41.294
-41.593
-41.83
-42.004
-42.116
-42.169
-42.163
-42.101
-41.985
-41.818
-41.602
-41.34
-41.037
-40.695
-40.318
-39.911
-39.477
-39.02
-38.546
-38.058
-37.563
-37.064
-36.567
-36.078
-35.602
-35.144
-34.711
-34.307
-33.94
-33.613
-33.334
-33.108
-32.939
-32.835
-32.798
-32.834
-32.948
-33.142
-33.42
-33.785
-34.238
-34.781
-35.415
-36.14
-36.956
-37.862
-38.858
-39.94
-41.108
-42.357
-43.684
-45.086
-46.558
-48.094
-49.69
-51.339
-53.034
-54.769
-56.537
-58.329
-60.138
-61.957
-63.775
-65.584
-67.377
-69.143
-70.874
-72.561
-74.196
-75.772
-77.279
-78.712
-80.063
-81.327
-82.498
-83.571
-84.541
-85.405
-86.161
-86.804
-87.335
-87.751
-88.053
-88.241
-88.315
-88.278
-88.132
-87.881
-87.526
-87.074
-86.528
-85.895
-85.179
-84.388
-83.529
-82.609
-81.636
-80.618
-79.564
-78.482
-77.381
-76.269
-75.156
-74.048
-72.956
-71.885
-70.845
-69.841
-68.881
-67.971
-67.117
-66.324
-65.596
-64.939
-64.356
-63.849
-63.421
-63.075
-62.81
-62.629
-62.53
-62.515
-62.581
-62.728
-62.954
-63.255
-63.628
-64.071
-64.578
-65.146
-65.768
-66.441
-67.159
-67.916
-68.706
-69.525
-70.366
-71.224
-72.092
-72.967
-73.842
-74.713
-75.574
-76.423
-77.254
-78.065
-78.852
-79.612
-80.343
-81.043
-81.711
-82.344
-82.943
-83.507
-84.036
-84.531
-84.991
-85.42
-85.818
-86.187
-86.531
-86.852
-87.153
-87.438
-87.709
-87.972
-88.229
-88.484
-88.743
-89.009
-89.285
-89.577
-89.887
-90.219
-90.577
-90.964
-91.381
-91.832
-92.319
-92.842
-93.405
-94.008
-94.653
-95.338
-96.066
-96.834
-97.644
-98.493
-99.379
-100.301
-101.255
-102.239
-103.25
-104.284
-105.337
-106.404
-107.482
-108.565
-109.647
-110.725
-111.791
-112.841
-113.867
-114.866
-115.832
-116.759
-117.643
-118.48
-119.265
-119.994
-120.663
-121.27
-121.811
-122.281
-122.68
-123.004
-123.253
-123.427
-123.527
-123.553
-123.511
-123.403
-123.235
-123.01
-122.735
-122.417
-122.064
-121.685
-121.285
-120.873
-120.457
-120.045
-119.647
-119.27
-118.918
-118.596
-118.307
-118.055
-117.849
-117.69
-117.576
-117.505
-117.474
-117.487
-117.55
-117.672
-117.852
-118.09
-118.388
-118.746
-119.171
-119.659
-120.194
-120.753
-121.309
-121.841
-122.34
-122.804
-123.225
-123.59
-123.866
-124.013
-124.005
-123.815
-123.427
-122.821
-121.948
-120.82
-119.535
-118.263
-117.255
-116.743
-116.844
-117.613
-119.126
-121.325
-123.995
-126.76
-128.931
-129.779
-128.829
-125.853
-120.782
-113.846
-105.535
-96.6
-88.411
-82.574
-80.456
-83.015
-90.651
-103.209
-120.053
-139.998
-160.828
-179.659
-193.441
-199.191
-194.554
-177.672
-146.984
-102.304
-45.656
20.032
91.085
164.698
241.038
319.253
395.666
464.096
513.97
535.076
522.962
477.468
404.848
316.879
224.343
137.928
65.128
6.897
-38.23
-74.557
-106.105
-133.261
-155.014
-168.98
-173.731
-170.305
-160.866
-148.336
-135.079
-122.397
-110.861
-100.684
-92.213
-85.789
-81.616
-79.642
-79.442
-80.433
-82.293
-84.687
-87.104
-89.171
-90.467
-90.719
-90.023
-88.618
-86.706
-84.597
-82.682
-81.197
-80.366
-80.313
-80.942
-82.112
-83.633
-85.234
-86.645
-87.701
-88.293
-88.379
-87.979
-87.106
-85.794
-84.108
-82.114
-79.867
-77.405
-74.748
-71.921
-68.963
-65.929
-62.876
-59.846
-56.863
-53.942
-51.094
-48.324
-45.638
-43.026
-40.477
-37.98
-35.53
-33.125
-30.764
-28.44
-26.14
-23.855
-21.57
-19.273
-16.957
-14.611
-12.227
-9.799
-7.32
-4.786
-2.192
0.467
3.199
6.012
8.914
11.912
15.012
18.222
21.545
24.987
28.55
32.236
36.045
39.977
44.032
48.207
52.498
56.903
61.414
66.025
70.73
75.517
80.377
85.298
90.268
95.274
100.301
105.335
110.359
115.357
120.312
125.206
130.021
134.739
139.34
143.807
148.119
152.26
156.21
159.953
163.47
166.747
169.766
172.515
174.98
177.148
179.01
180.555
181.776
182.666
183.221
183.437
183.313
182.849
182.047
180.91
179.443
177.653
175.548
173.139
170.438
167.456
164.208
160.712
156.982
153.039
148.902
144.59
140.124
135.528
130.822
126.029
121.173
116.275
111.36
106.449
101.565
96.73
91.965
87.29
82.723
78.285
73.99
69.856
65.897
62.126
58.554
55.191
52.046
49.126
46.437
43.981
41.76
39.776
38.026
36.508
35.217
34.147
33.29
32.639
32.183
31.91
31.81
31.868
32.072
32.406
32.855
33.405
34.038
34.74
35.495
36.287
37.1
37.92
38.732
39.521
40.276
40.982
41.629
42.206
42.703
43.11
43.422
43.631
43.732
43.722
43.597
43.356
43
42.529
41.945
41.252
40.455
39.559
38.571
37.498
36.35
35.135
33.864
32.547
31.196
29.821
28.436
27.052
25.681
24.335
23.027
21.768
20.57
19.444
18.402
17.452
16.604
15.868
15.251
14.761
14.403
14.183
14.105
14.173
14.389
14.753
15.266
15.927
16.733
17.682
18.768
19.987
21.333
22.797
24.372
26.048
27.817
29.666
31.587
33.566
35.592
37.653
39.735
41.827
43.915
45.987
48.029
50.031
51.978
53.861
55.666
57.385
59.006
60.52
61.917
63.191
64.334
65.34
66.202
66.917
67.482
67.893
68.15
68.251
68.197
67.99
67.631
67.124
66.474
65.684
64.762
63.711
62.541
61.259
59.872
58.389
56.818
55.17
53.452
51.675
49.848
47.98
46.081
44.16
42.227
40.289
38.356
36.437
34.538
32.669
30.834
29.042
27.297
25.607
23.974
22.404
20.901
19.468
18.108
16.822
15.612
14.48
13.426
12.45
11.552
10.731
9.987
9.318
8.723
8.2
7.748
7.365
7.048
6.795
6.605
6.474
6.401
6.383
6.418
6.503
6.636
6.816
7.04
7.305
7.611
7.956
8.337
8.753
9.202
9.684
10.196
10.737
11.307
11.904
12.526
13.174
13.845
14.54
15.255
15.991
16.746
17.518
18.307
19.109
19.924
20.75
21.585
22.428
23.277
24.129
24.983
25.837
26.688
27.535
28.375
29.205
30.024
30.829
31.619
32.39
33.141
33.87
34.574
35.251
35.899
36.515
37.098
37.645
38.155
38.626
39.055
39.442
39.785
40.083
40.333
40.536
40.689
40.791
40.841
40.837
40.778
40.663
40.491
40.261
39.971
39.622
39.21
38.737
38.201
37.601
36.937
36.207
35.412
34.55
33.624
32.631
31.574
30.452
29.267
28.019
26.711
25.342
23.915
22.431
20.893
19.303
17.664
15.979
14.252
12.487
10.69
8.865
7.018
5.154
3.28
1.401
-0.476
-2.343
-4.193
-6.02
-7.817
-9.574
-11.285
-12.942
-14.538
-16.067
-17.523
-18.898
-20.189
-21.389
-22.494
-23.5
-24.403
-25.199
-25.885
-26.46
-26.921
-27.27
-27.508
-27.636
-27.659
-27.583
-27.414
-27.162
-26.834
-26.443
-26
-25.517
-25.009
-24.486
-23.96
-23.444
-22.949
-22.487
-22.069
-21.704
-21.399
-21.168
-21.018
-20.958
-20.992
-21.118
-21.336
-21.647
-22.054
-22.57
-23.204
-23.959
-24.844
-25.87
-27.043
-28.371
-29.845
-31.433
-33.11
-34.85
-36.64
-38.488
-40.382
-42.295
-44.2
-46.042
-47.777
-49.392
-50.833
-52.02
-52.944
-53.626
-54.173
-54.825
-55.763
-57.111
-59.031
-61.585
-64.705
-68.27
-71.92
-75.129
-77.458
-78.442
-77.659
-75.02
-70.662
-64.908
-58.492
-52.284
-47.18
-44.385
-45.002
-49.603
-58.462
-71.526
-88.185
-107.58
-127.732
-145.188
-156.773
-160.363
-156.278
-146.537
-131.187
-107.783
-71.277
-16.366
57.667
147.319
246.543
347.333
441.864
522.681
580.454
606.529
597.005
551.795
477.525
386.803
291.043
201.44
125.657
64.369
16.336
-22.23
-55.153
-82.44
-102.776
-113.82
-114.08
-105.016
-89.866
-72.607
-56.522
-43.399
-33.832
-27.886
-25.708
-27.135
-31.403
-37.37
-43.55
-48.632
-52.07
-53.624
-53.067
-50.477
-46.144
-40.545
-34.524
-28.909
-24.107
-20.338
-17.765
-16.378
-16.139
-16.941
-18.47
-20.375
-22.424
-24.451
-26.336
-28.008
-29.389
-30.418
-31.091
-31.431
-31.458
-31.184
-30.621
-29.777
-28.678
-27.357
-25.854
-24.204
-22.451
-20.637
-18.804
-16.996
-15.243
-13.566
-11.977
-10.481
-9.079
-7.765
-6.53
-5.359
-4.24
-3.161
-2.108
-1.069
-0.03
1.023
2.104
3.226
4.4
5.636
6.945
8.334
9.81
11.379
13.045
14.813
16.686
18.669
20.766
22.981
25.316
27.773
30.355
33.062
35.893
38.846
41.917
45.102
48.396
51.791
55.28
58.853
62.5
66.21
69.972
73.771
77.593
81.425
85.251
89.054
92.818
96.526
100.162
103.709
107.148
110.463
113.637
116.653
119.495
122.147
124.593
126.82
128.814
130.56
132.048
133.267
134.205
134.856
135.211
135.265
135.014
134.453
133.583
132.402
130.914
129.119
127.024
124.634
121.957
119.002
115.778
112.298
108.574
104.621
100.453
96.086
91.537
86.824
81.965
76.978
71.883
66.699
61.446
56.144
50.813
45.471
40.14
34.837
29.582
24.394
19.289
14.285
9.398
4.643
0.034
-4.415
-8.693
-12.789
-16.693
-20.396
-23.892
-27.175
-30.239
-33.083
-35.704
-38.101
-40.275
-42.228
-43.962
-45.483
-46.794
-47.903
-48.815
-49.538
-50.081
-50.454
-50.665
-50.725
-50.645
-50.436
-50.11
-49.677
-49.15
-48.54
-47.859
-47.119
-46.331
-45.507
-44.656
-43.789
-42.917
-42.049
-41.194
-40.36
-39.555
-38.786
-38.059
-37.381
-36.757
-36.19
-35.684
-35.242
-34.867
-34.56
-34.322
-34.153
-34.052
-34.02
-34.054
-34.153
-34.313
-34.531
-34.806
-35.131
-35.505
-35.922
-36.378
-36.869
-37.39
-37.936
-38.503
-39.085
-39.678
-40.278
-40.88
-41.479
-42.072
-42.654
-43.222
-43.773
-44.302
-44.809
-45.289
-45.742
-46.164
-46.556
-46.915
-47.242
-47.537
-47.799
-48.031
-48.232
-48.406
-48.554
-48.678
-48.781
-48.866
-48.936
-48.994
-49.045
-49.09
-49.135
-49.183
-49.238
-49.303
-49.383
-49.481
-49.6
-49.746
-49.92
-50.126
-50.368
-50.648
-50.968
-51.331
-51.74
-52.195
-52.699
-53.251
-53.852
-54.502
-55.2
-55.945
-56.734
-57.566
-58.436
-59.342
-60.28
-61.245
-62.233
-63.238
-64.255
-65.278
-66.302
-67.319
-68.323
-69.308
-70.267
-71.193
-72.079
-72.918
-73.705
-74.431
-75.092
-75.679
-76.187
-76.611
-76.944
-77.181
-77.318
-77.35
-77.274
-77.087
-76.787
-76.372
-75.843
-75.198
-74.439
-73.568
-72.587
-71.499
-70.308
-69.019
-67.638
-66.169
-64.62
-62.999
-61.312
-59.567
-57.774
-55.942
-54.078
-52.193
-50.296
-48.397
-46.506
-44.632
-42.785
-40.976
-39.213
-37.507
-35.865
-34.297
-32.81
-31.412
-30.109
-28.908
-27.813
-26.829
-25.961
-25.21
-24.578
-24.067
-23.676
-23.405
-23.253
-23.216
-23.292
-23.476
-23.765
-24.152
-24.633
-25.2
-25.847
-26.567
-27.353
-28.196
-29.089
-30.024
-30.993
-31.986
-32.997
-34.017
-35.039
-36.055
-37.059
-38.042
-39.001
-39.929
-40.82
-41.672
-42.479
-43.24
-43.953
-44.616
-45.228
-45.791
-46.305
-46.772
-47.195
-47.577
-47.922
-48.234
-48.517
-48.778
-49.021
-49.253
-49.479
-49.706
-49.94
-50.187
-50.454
-50.745
-51.067
-51.425
-51.824
-52.268
-52.761
-53.306
-53.907
-54.567
-55.286
-56.066
-56.907
-57.808
-58.769
-59.787
-60.859
-61.982
-63.149
-64.356
-65.597
-66.865
-68.154
-69.455
-70.76
-72.06
-73.347
-74.612
-75.844
-77.035
-78.175
-79.255
-80.267
-81.201
-82.052
-82.812
-83.473
-84.031
-84.48
-84.815
-85.032
-85.128
-85.1
-84.946
-84.668
-84.265
-83.74
-83.096
-82.339
-81.476
-80.515
-79.465
-78.335
-77.138
-75.886
-74.593
-73.272
-71.935
-70.595
-69.263
-67.955
-66.683
-65.459
-64.293
-63.193
-62.169
-61.234
-60.397
-59.663
-59.03
-58.497
-58.064
-57.734
-57.521
-57.432
-57.47
-57.636
-57.934
-58.367
-58.938
-59.637
-60.434
-61.296
-62.192
-63.103
-64.03
-64.974
-65.923
-66.848
-67.703
-68.444
-69.046
-69.489
-69.739
-69.753
-69.529
-69.128
-68.712
-68.496
-68.664
-69.323
-70.506
-72.236
-74.447
-76.988
-79.582
-81.769
-83.081
-83.132
-81.724
-78.794
-74.452
-68.961
-62.764
-56.567
-51.153
-47.546
-46.704
-49.343
-56.164
-66.552
-78.332
-89.631
-98.65
-106.248
-116.631
-130.52
-144.832
-150.405
-132.97
-86.151
-11.535
81.214
176.655
267.828
352.837
430.816
501.478
555.448
580.808
572.565
530.47
463.643
387.573
311.564
241.834
181.032
124.741
72.324
25.189
-16.463
-48.695
-69.827
-81.336
-84.188
-80.835
-74.032
-65.151
-55.364
-45.817
-36.911
-28.517
-20.395
-12.329
-4.063
4.173
11.768
18.591
24.412
28.705
31.133
31.496
29.765
26.52
22.747
19.001
15.652
13.065
11.381
10.716
11.115
12.234
13.474
14.492
15.164
15.473
15.554
15.481
15.282
15.103
15.183
15.669
16.611
17.985
19.687
21.645
23.831
26.203
28.699
31.265
33.845
36.392
38.891
41.334
43.704
45.991
48.184
50.277
52.279
54.208
56.077
57.894
59.664
61.387
63.067
64.713
66.33
67.925
69.504
71.072
72.638
74.213
75.809
77.433
79.094
80.799
82.556
84.377
86.27
88.24
90.294
92.441
94.692
97.062
99.56
102.187
104.943
107.825
110.827
113.939
117.141
120.401
123.688
126.98
130.267
133.547
136.816
140.068
143.296
146.493
149.667
152.83
155.984
159.128
162.261
165.393
168.556
171.805
175.182
178.702
182.356
186.119
189.962
193.851
197.738
201.558
205.219
208.638
211.75
214.51
216.871
218.773
220.129
220.829
220.791
219.964
218.325
215.874
212.612
208.562
203.777
198.344
192.38
185.988
179.244
172.206
164.933
157.497
149.995
142.532
135.191
128.034
121.113
114.467
108.137
102.144
96.481
91.113
85.982
81.051
76.305
71.737
67.347
63.125
59.052
55.109
51.296
47.609
44.048
40.61
37.284
34.075
30.996
28.075
25.343
22.82
20.514
18.426
16.554
14.895
13.446
12.195
11.125
10.219
9.465
8.85
8.367
8.001
7.736
7.553
7.433
7.359
7.318
7.295
7.278
7.256
7.219
7.161
7.079
6.967
6.821
6.635
6.405
6.127
5.8
5.421
4.988
4.501
3.96
3.369
2.73
2.046
1.321
0.56
-0.232
-1.05
-1.888
-2.742
-3.604
-4.471
-5.335
-6.192
-7.035
-7.859
-8.659
-9.429
-10.166
-10.865
-11.521
-12.133
-12.696
-13.21
-13.673
-14.082
-14.437
-14.739
-14.986
-15.179
-15.319
-15.407
-15.445
-15.436
-15.382
-15.286
-15.151
-14.982
-14.781
-14.553
-14.302
-14.03
-13.744
-13.445
-13.138
-12.826
-12.514
-12.205
-11.902
-11.609
-11.329
-11.065
-10.82
-10.596
-10.395
-10.22
-10.072
-9.952
-9.861
-9.8
-9.768
-9.765
-9.792
-9.846
-9.928
-10.036
-10.168
-10.322
-10.497
-10.69
-10.899
-11.122
-11.356
-11.6
-11.851
-12.106
-12.365
-12.624
-12.882
-13.137
-13.388
-13.632
-13.867
-14.093
-14.308
-14.511
-14.7
-14.876
-15.037
-15.183
-15.316
-15.434
-15.539
-15.631
-15.712
-15.784
-15.848
-15.906
-15.961
-16.014
-16.068
-16.127
-16.192
-16.267
-16.354
-16.457
-16.577
-16.717
-16.88
-17.067
-17.28
-17.522
-17.793
-18.094
-18.428
-18.795
-19.195
-19.629
-20.097
-20.598
-21.133
-21.699
-22.295
-22.92
-23.571
-24.245
-24.94
-25.653
-26.379
-27.115
-27.856
-28.598
-29.335
-30.063
-30.776
-31.469
-32.137
-32.773
-33.372
-33.929
-34.44
-34.898
-35.3
-35.641
-35.916
-36.123
-36.257
-36.315
-36.293
-36.191
-36.005
-35.734
-35.376
-34.932
-34.4
-33.781
-33.077
-32.287
-31.415
-30.461
-29.429
-28.321
-27.142
-25.895
-24.586
-23.218
-21.798
-20.332
-18.824
-17.283
-15.713
-14.122
-12.516
-10.901
-9.285
-7.673
-6.072
-4.489
-2.929
-1.4
0.094
1.547
2.953
4.307
5.605
6.842
8.014
9.118
10.149
11.105
11.983
12.78
13.495
14.124
14.668
15.124
15.494
15.776
15.971
16.08
16.104
16.045
15.904
15.684
15.387
15.016
14.573
14.063
13.489
12.854
12.163
11.419
10.628
9.794
8.92
8.012
7.074
6.111
5.128
4.129
3.121
2.108
1.095
0.089
-0.904
-1.88
-2.832
-3.755
-4.643
-5.49
-6.292
-7.043
-7.737
-8.37
-8.937
-9.434
-9.854
-10.196
-10.454
-10.626
-10.71
-10.702
-10.602
-10.409
-10.121
-9.739
-9.262
-8.691
-8.026
-7.27
-6.424
-5.493
-4.48
-3.391
-2.232
-1.011
0.261
1.576
2.924
4.295
5.677
7.057
8.421
9.757
11.053
12.296
13.473
14.568
15.569
16.464
17.245
17.903
18.43
18.818
19.056
19.143
19.076
18.855
18.479
17.938
17.227
16.341
15.282
14.05
12.651
11.087
9.362
7.494
5.503
3.415
1.26
-0.943
-3.179
-5.436
-7.7
-9.947
-12.136
-14.233
-16.2
-17.999
-19.63
-21.082
-22.323
-23.393
-24.379
-25.418
-26.757
-28.607
-31.014
-33.994
-37.582
-41.667
-46.114
-50.646
-54.592
-57.291
-58.426
-57.828
-55.509
-51.746
-46.753
-40.99
-35.691
-32.234
-31.681
-34.833
-41.867
-52.485
-66.442
-82.972
-100.118
-115.395
-126.127
-129.541
-123.622
-106.779
-77.157
-34.361
19.659
82.433
150.621
221.847
297.124
375.752
453.421
523.171
573.398
593.469
580.089
534.407
462.76
376.745
285.096
196.265
119.382
57.214
11.151
-19.946
-42.405
-59.257
-71.806
-80.619
-83.206
-79.596
-72.054
-62.85
-55.039
-50.078
-47.674
-47.368
-48.401
-49.971
-51.492
-52.26
-51.547
-49.139
-45.251
-40.267
-34.717
-29.077
-23.7
-18.961
-15.222
-12.644
-11.23
-10.892
-11.442
-12.714
-14.579
-16.882
-19.48
-22.242
-25.028
-27.714
-30.196
-32.39
-34.244
-35.726
-36.814
-37.5
-37.798
-37.738
-37.367
-36.732
-35.872
-34.827
-33.636
-32.346
-31.009
-29.678
-28.4
-27.208
-26.12
-25.149
-24.3
-23.572
-22.956
-22.438
-21.994
-21.608
-21.267
-20.958
-20.669
-20.385
-20.089
-19.764
-19.396
-18.971
-18.476
-17.899
-17.229
-16.458
-15.577
-14.58
-13.462
-12.217
-10.839
-9.32
-7.655
-5.84
-3.869
-1.741
0.546
2.994
5.6
8.36
11.27
14.324
17.514
20.831
24.265
27.805
31.438
35.15
38.927
42.752
46.609
50.479
54.345
58.186
61.984
65.718
69.368
72.913
76.334
79.61
82.722
85.65
88.377
90.885
93.155
95.173
96.923
98.391
99.564
100.433
100.987
101.218
101.122
100.693
99.929
98.829
97.395
95.629
93.535
91.12
88.39
85.355
82.026
78.416
74.536
70.404
66.034
61.443
56.65
51.672
46.53
41.241
35.827
30.306
24.699
19.025
13.305
7.558
1.802
-3.944
-9.661
-15.334
-20.946
-26.481
-31.925
-37.267
-42.493
-47.593
-52.558
-57.378
-62.048
-66.561
-70.912
-75.098
-79.118
-82.97
-86.654
-90.173
-93.529
-96.724
-99.763
-102.651
-105.394
-107.996
-110.465
-112.807
-115.029
-117.137
-119.14
-121.044
-122.857
-124.585
-126.236
-127.815
-129.331
-130.787
-132.191
-133.548
-134.861
-136.137
-137.38
-138.593
-139.779
-140.942
-142.085
-143.21
-144.318
-145.411
-146.489
-147.554
-148.605
-149.643
-150.668
-151.679
-152.677
-153.662
-154.633
-155.59
-156.533
-157.464
-158.381
-159.286
-160.179
-161.061
-161.934
-162.799
-163.657
-164.511
-165.362
-166.213
-167.065
-167.92
-168.781
-169.65
-170.527
-171.416
-172.317
-173.232
-174.163
-175.111
-176.077
-177.063
-178.067
-179.092
-180.137
-181.201
-182.285
-183.387
-184.505
-185.638
-186.785
-187.942
-189.107
-190.276
-191.447
-192.615
-193.776
-194.926
-196.06
-197.173
-198.26
-199.315
-200.336
-201.315
-202.25
-203.135
-203.966
-204.741
-205.454
-206.104
-206.687
-207.202
-207.645
-208.017
-208.316
-208.541
-208.694
-208.774
-208.782
-208.721
-208.591
-208.396
-208.137
-207.818
-207.441
-207.012
-206.533
-206.009
-205.446
-204.848
-204.22
-203.568
-202.897
-202.213
-201.521
-200.826
-200.134
-199.449
-198.777
-198.121
-197.485
-196.874
-196.29
-195.736
-195.214
-194.726
-194.273
-193.857
-193.476
-193.132
-192.823
-192.549
-192.309
-192.102
-191.926
-191.779
-191.659
-191.563
-191.49
-191.437
-191.4
-191.376
-191.363
-191.356
-191.353
-191.349
-191.342
-191.329
-191.305
-191.268
-191.214
-191.141
-191.047
-190.928
-190.783
-190.611
-190.409
-190.178
-189.916
-189.624
-189.301
-188.949
-188.567
-188.156
-187.718
-187.253
-186.762
-186.247
-185.709
-185.149
-184.568
-183.968
-183.351
-182.717
-182.069
-181.408
-180.736
-180.053
-179.363
-178.665
-177.963
-177.258
-176.551
-175.843
-175.138
-174.434
-173.735
-173.041
-172.352
-171.67
-170.995
-170.327
-169.666
-169.013
-168.368
-167.732
-167.103
-166.483
-165.873
-165.272
-164.681
-164.102
-163.535
-162.981
-162.441
-161.918
-161.412
-160.926
-160.46
-160.017
-159.598
-159.205
-158.84
-158.505
-158.201
-157.931
-157.695
-157.496
-157.336
-157.216
-157.139
-157.106
-157.12
-157.181
-157.292
-157.453
-157.668
-157.936
-158.259
-158.636
-159.069
-159.556
-160.097
-160.69
-161.333
-162.025
-162.761
-163.54
-164.357
-165.208
-166.088
-166.994
-167.92
-168.861
-169.81
-170.762
-171.71
-172.647
-173.567
-174.461
-175.323
-176.145
-176.918
-177.636
-178.29
-178.871
-179.373
-179.786
-180.102
-180.314
-180.414
-180.396
-180.253
-179.979
-179.57
-179.022
-178.33
-177.494
-176.511
-175.38
-174.102
-172.675
-171.102
-169.385
-167.526
-165.529
-163.4
-161.145
-158.773
-156.293
-153.715
-151.05
-148.311
-145.508
-142.657
-139.767
-136.851
-133.919
-130.984
-128.06
-125.16
-122.299
-119.489
-116.742
-114.07
-111.483
-108.993
-106.606
-104.324
-102.152
-100.097
-98.172
-96.394
-94.78
-93.338
-92.076
-90.998
-90.106
-89.398
-88.864
-88.475
-88.203
-88.021
-87.908
-87.847
-87.816
-87.779
-87.691
-87.499
-87.153
-86.625
-85.898
-84.948
-83.774
-82.38
-80.786
-79.059
-77.288
-75.552
-73.934
-72.497
-71.294
-70.443
-70.115
-70.436
-71.446
-73.056
-75.054
-77.25
-79.484
-81.49
-82.881
-83.296
-82.612
-81.092
-79.27
-77.799
-77.332
-78.448
-81.828
-87.428
-94.079
-100.273
-104.692
-107.698
-110.551
-112.577
-109.967
-94.939
-60.403
-5.334
65.994
144.304
221.701
297.487
372.815
447.529
517.28
570.163
593.512
581.767
535.385
461.51
373.367
281.227
194.48
122.76
68.535
32.136
10.917
-2.901
-12.963
-20.248
-24.437
-22.389
-14.143
-2.146
11.245
23.127
32.487
39.73
44.971
48.746
51.832
54.701
57.923
61.925
66.395
71.067
76.049
81.179
86.213
91.023
95.339
99.043
102.442
105.628
108.387
110.693
112.53
113.893
114.961
115.805
116.34
116.664
117.008
117.522
118.353
119.575
121.141
123.057
125.359
128.023
131.001
134.24
137.674
141.267
145.012
148.882
152.843
156.852
160.858
164.829
168.752
172.615
176.418
180.16
183.847
187.494
191.121
194.746
198.384
202.047
205.743
209.486
213.29
217.17
221.143
225.222
229.419
233.745
238.21
242.821
247.584
252.504
257.584
262.828
268.239
273.82
279.576
285.508
291.617
297.903
304.364
310.997
317.798
324.76
331.875
339.134
346.528
354.046
361.675
369.401
377.211
385.088
393.016
400.977
408.954
416.927
424.878
432.787
440.635
448.401
456.066
463.611
471.017
478.264
485.335
492.213
498.88
505.32
511.519
517.464
523.141
528.54
533.651
538.465
542.976
547.179
551.07
554.648
557.911
560.862
563.504
565.841
567.88
569.627
571.093
572.288
573.223
573.911
574.368
574.607
574.644
574.497
574.182
573.719
573.125
572.42
571.622
570.75
569.825
568.865
567.889
566.914
565.959
565.04
564.174
563.376
562.659
562.039
561.527
561.134
560.871
560.747
560.769
560.945
561.281
561.78
562.445
563.28
564.286
565.463
566.81
568.327
570.011
571.86
573.87
576.037
578.355
580.82
583.424
586.163
589.03
592.02
595.126
598.345
601.671
605.101
608.634
612.267
615.998
619.826
623.752
627.773
631.892
636.107
640.419
644.83
649.34
653.953
658.671
663.498
668.435
673.485
678.651
683.938
689.349
694.892
700.57
706.392
712.367
718.507
724.825
731.331
738.031
744.925
752.015
759.293
766.752
774.375
782.134
789.994
797.924
805.89
813.858
821.796
829.657
837.396
844.964
852.314
859.415
866.241
872.757
878.944
884.792
890.302
895.53
900.549
905.416
910.207
914.999
919.822
924.722
929.706
934.652
939.437
943.925
947.894
951.218
953.89
955.864
957.322
958.791
960.698
963.427
966.885
970.034
971.819
971.931
971.784
973.606
978.621
985.135
986.235
973.73
941.443
888.005
821.016
751.836
691.783
648.824
622.409
607.023
594.957
579.47
558.855
534.614
509.826
486.895
465.814
445.438
424.37
402.083
379.08
356.067
333.71
312.303
291.89
272.525
254.172
236.672
219.766
203.134
186.485
169.663
152.599
135.24
117.573
99.606
81.374
62.97
44.5
26.036
7.619
-10.713
-28.916
-46.917
-64.613
-81.925
-98.8
-115.198
-131.096
-146.471
-161.301
-175.581
-189.327
-202.561
-215.308
-227.583
-239.398
-250.77
-261.726
-272.3
-282.535
-292.463
-302.106
-311.482
-320.607
-329.493
-338.151
-346.586
-354.794
-362.774
-370.528
-378.062
-385.382
-392.493
-399.397
-406.096
-412.593
-418.892
-424.998
-430.916
-436.653
-442.214
-447.608
-452.843
-457.929
-462.876
-467.692
-472.383
-476.956
-481.418
-485.775
-490.033
-494.198
-498.276
-502.271
-506.189
-510.037
-513.82
-517.543
-521.21
-524.825
-528.393
-531.917
-535.399
-538.843
-542.248
-545.618
-548.954
-552.255
-555.523
-558.755
-561.951
-565.111
-568.232
-571.312
-574.348
-577.337
-580.276
-583.16
-585.987
-588.752
-591.45
-594.076
-596.627
-599.098
-601.484
-603.781
-605.982
-608.083
-610.079
-611.964
-613.734
-615.385
-616.912
-618.31
-619.577
-620.71
-621.706
-622.563
-623.278
-623.851
-624.28
-624.565
-624.705
-624.699
-624.549
-624.255
-623.817
-623.237
-622.517
-621.659
-620.665
-619.536
-618.276
-616.887
-615.372
-613.733
-611.975
-610.099
-608.11
-606.012
-603.809
-601.505
-599.104
-596.61
-594.028
-591.362
-588.616
-585.793
-582.898
-579.935
-576.907
-573.818
-570.674
-567.479
-564.238
-560.959
-557.648
-554.31
-550.952
-547.583
-544.211
-540.845
-537.489
-534.15
-530.832
-527.542
-524.285
-521.069
-517.897
-514.773
-511.698
-508.675
-505.712
-502.813
-499.979
-497.202
-494.478
-491.803
-489.185
-486.635
-484.163
-481.767
-479.448
-477.208
-475.049
-472.975
-470.976
-469.023
-467.085
-465.128
-463.131
-461.094
-459.013
-456.874
-454.646
-452.27
-449.697
-446.904
-443.88
-440.625
-437.133
-433.366
-429.34
-425.183
-421.096
-417.291
-413.892
-410.859
-408.121
-405.755
-403.86
-402.4
-401.084
-399.406
-396.959
-393.688
-389.765
-385.179
-379.747
-373.392
-366.462
-359.86
-354.627
-351.418
-350.411
-351.75
-355.71
-362.387
-371.26
-380.73
-388.548
-392.514
-390.599
-380.858
-361.3
-329.833
-285.913
-231.662
-169.788
-103.273
-33.501
41.381
120.906
200.473
271.938
322.543
341.528
325.361
275.866
201.77
115.911
29.113
-48.417
-110.223
-155.635
-186.204
-206.81
-222.249
-233.883
-241.563
-243.325
-237.874
-226.74
-212.616
-198.646
-187.071
-178.357
-172.095
-167.603
-164.29
-161.577
-158.807
-155.294
-150.413
-144.011
-136.36
-127.857
-118.95
-110.046
-101.46
-93.513
-86.518
-80.596
-75.721
-71.792
-68.633
-66.089
-64.054
-62.401
-60.997
-59.726
-58.46
-57.081
-55.523
-53.738
-51.692
-49.377
-46.778
-43.895
-40.76
-37.414
-33.904
-30.272
-26.555
-22.785
-19.005
-15.263
-11.612
-8.102
-4.766
-1.625
1.309
4.031
6.538
8.834
10.936
12.867
14.644
16.286
17.806
19.216
20.535
21.782
22.977
24.14
25.287
26.433
27.596
28.79
30.028
31.323
32.684
34.121
35.643
37.262
38.987
40.829
42.795
44.895
47.134
49.52
52.055
54.743
57.584
60.577
63.72
67.01
70.441
74.007
77.7
81.51
85.428
89.441
93.537
97.701
101.917
106.171
110.444
114.721
118.983
123.212
127.39
131.498
135.519
139.434
143.226
146.876
150.367
153.684
156.809
159.729
162.428
164.893
167.111
169.073
170.767
172.185
173.32
174.165
174.717
174.972
174.928
174.586
173.945
173.009
171.782
170.269
168.475
166.411
164.083
161.503
158.681
155.629
152.36
148.887
145.224
141.385
137.385
133.239
128.964
124.575
120.087
115.517
110.881
106.195
101.474
96.734
91.991
87.259
82.553
77.887
73.274
68.728
64.261
59.883
55.607
51.442
47.396
43.479
39.697
36.058
32.565
29.225
26.041
23.015
20.151
17.45
14.913
12.54
10.33
8.283
6.397
4.67
3.1
1.683
0.417
-0.704
-1.684
-2.526
-3.238
-3.823
-4.288
-4.64
-4.884
-5.027
-5.076
-5.037
-4.919
-4.727
-4.47
-4.154
-3.785
-3.371
-2.918
-2.433
-1.92
-1.385
-0.835
-0.274
0.292
0.859
1.422
1.976
2.517
3.04
3.542
4.018
4.467
4.884
5.268
5.617
5.928
6.2
6.433
6.624
6.775
6.885
6.955
6.986
6.979
6.938
6.863
6.759
6.627
6.471
6.292
6.095
5.881
5.652
5.411
5.16
4.901
4.636
4.368
4.099
3.83
3.565
3.302
3.045
2.791
2.538
2.283
2.021
1.748
1.458
1.146
0.806
0.431
0.016
-0.445
-0.96
-1.536
-2.181
-2.905
-3.717
-4.628
-5.643
-6.767
-8.005
-9.358
-10.826
-12.407
-14.102
-15.911
-17.841
-19.898
-22.083
-24.399
-26.848
-29.419
-32.101
-34.872
-37.694
-40.531
-43.346
-46.097
-48.751
-51.259
-53.57
-55.638
-57.404
-58.821
-59.854
-60.446
-60.541
-60.117
-59.155
-57.707
-55.874
-53.699
-51.275
-48.759
-46.306
-44.201
-42.737
-41.954
-41.871
-42.572
-43.921
-45.768
-47.859
-49.38
-49.481
-47.803
-44.104
-38.192
-30.226
-20.332
-8.872
2.258
10.165
