Name,Kaushik Vada
Date of Birth,"Mar 17, 2005"
Recorded Date,2024-03-11 10:07:52 -0800
Classification,Sinus Rhythm
Symptoms,
Software Version,1.90
Device,"Watch6,15"
Sample Rate,512 hertz


Lead,Lead I
Unit,µV

-34.914
-25.335
-24.094
-25.737
-26.147
-20.978
-9.471
4.007
16.704
26.817
33.641
38.764
42.897
45.89
47.778
48.317
47.461
45.513
42.638
38.914
34.533
29.686
24.556
19.338
14.161
9.099
4.234
-0.348
-4.581
-8.404
-11.769
-14.668
-17.099
-19.081
-20.652
-21.87
-22.837
-23.679
-24.536
-25.551
-26.833
-28.448
-30.434
-32.816
-35.567
-38.68
-42.187
-46.011
-50.028
-54.063
-57.808
-60.985
-63.473
-65.116
-65.688
-65.162
-63.602
-61.286
-58.974
-57.354
-56.64
-56.819
-57.62
-58.497
-58.946
-58.125
-54.407
-46.138
-32.355
-12.778
12.009
40.932
73.041
106.848
139.818
168.981
191.678
205.94
210.827
205.923
190.704
165.49
131.862
92.233
49.476
6.315
-35.078
-72.553
-103.682
-126.938
-141.925
-149.035
-149.458
-144.561
-135.574
-124.189
-112.558
-102.204
-93.947
-88.133
-84.506
-82.75
-82.659
-83.628
-84.714
-85.306
-85.111
-84.09
-82.53
-80.671
-78.636
-76.675
-75.105
-74.1
-73.729
-73.942
-74.543
-75.358
-76.243
-77.043
-77.644
-77.977
-77.986
-77.642
-76.943
-75.88
-74.46
-72.693
-70.582
-68.132
-65.355
-62.268
-58.909
-55.321
-51.55
-47.642
-43.626
-39.519
-35.336
-31.086
-26.773
-22.4
-17.96
-13.444
-8.849
-4.179
0.568
5.388
10.287
15.267
20.332
25.484
30.725
36.052
41.46
46.945
52.496
58.102
63.752
69.432
75.128
80.827
86.515
92.18
97.807
103.381
108.882
114.292
119.589
124.752
129.763
134.6
139.239
143.658
147.837
151.754
155.394
158.736
161.757
164.432
166.737
168.657
170.19
171.332
172.074
172.411
172.341
171.866
171
169.743
168.08
166
163.488
160.546
157.197
153.457
149.349
144.882
140.046
134.847
129.308
123.436
117.237
110.71
103.838
96.647
89.209
81.588
73.852
66.047
58.19
50.313
42.454
34.654
26.97
19.442
12.088
4.953
-1.904
-8.42
-14.514
-20.162
-25.407
-30.276
-34.794
-38.974
-42.802
-46.281
-49.437
-52.281
-54.827
-57.08
-59.032
-60.702
-62.135
-63.376
-64.485
-65.478
-66.323
-67.005
-67.516
-67.854
-68.033
-68.058
-67.913
-67.605
-67.153
-66.578
-65.906
-65.149
-64.299
-63.351
-62.298
-61.151
-59.939
-58.685
-57.404
-56.112
-54.819
-53.541
-52.299
-51.103
-49.95
-48.837
-47.762
-46.725
-45.735
-44.795
-43.908
-43.074
-42.288
-41.55
-40.857
-40.209
-39.6
-39.027
-38.484
-37.968
-37.481
-37.022
-36.589
-36.181
-35.795
-35.428
-35.078
-34.743
-34.418
-34.1
-33.785
-33.469
-33.151
-32.827
-32.494
-32.15
-31.791
-31.415
-31.018
-30.597
-30.148
-29.667
-29.152
-28.599
-28.005
-27.367
-26.681
-25.945
-25.154
-24.305
-23.395
-22.42
-21.376
-20.259
-19.067
-17.798
-16.45
-15.024
-13.518
-11.935
-10.276
-8.544
-6.741
-4.87
-2.936
-0.942
1.107
3.203
5.341
7.511
9.705
11.911
14.116
16.31
18.478
20.61
22.694
24.715
26.663
28.528
30.299
31.967
33.519
34.943
36.222
37.343
38.293
39.061
39.635
40.004
40.161
40.102
39.828
39.343
38.645
37.73
36.585
35.202
33.584
31.738
29.674
27.408
24.96
22.361
19.66
16.912
14.157
11.423
8.718
6.047
3.42
0.86
-1.606
-3.955
-6.18
-8.276
-10.231
-12.043
-13.721
-15.303
-16.879
-18.542
-20.372
-22.434
-24.738
-27.27
-30.016
-32.932
-36.008
-39.281
-42.662
-45.978
-49.086
-51.786
-53.992
-55.775
-56.949
-57.103
-56.134
-54.172
-51.53
-48.834
-46.24
-43.276
-39.765
-35.847
-31.348
-25.89
-18.648
-8.109
6.439
24.473
45.447
68.84
93.894
119.815
145.085
167.086
183.797
194.464
198.543
195.782
186.072
169.105
145.514
117.286
86.373
54.16
22.078
-8.643
-36.573
-59.751
-77.098
-88.692
-94.865
-96.054
-92.922
-86.125
-76.854
-66.995
-57.834
-49.969
-43.773
-39.297
-36.512
-35.457
-35.715
-36.405
-36.976
-37.179
-36.89
-36.282
-35.536
-34.61
-33.5
-32.5
-31.826
-31.477
-31.703
-31.964
-30.757
-28.296
-25.635
-24.443
-28.895
-39.142
-50.728
-59.762
-59.551
-48.163
-32.484
-17.595
-9.62
-11.893
-18.344
-24.748
-28.16
-25.857
-21.053
-16.116
-11.403
-8.018
-5.124
-1.889
1.348
4.645
7.986
11.204
14.392
17.638
20.928
24.282
27.75
31.343
35.042
38.841
42.724
46.67
50.682
54.757
58.877
63.027
67.198
71.378
75.558
79.729
83.876
87.984
92.04
96.03
99.936
103.744
107.435
110.991
114.394
117.626
120.67
123.509
126.125
128.504
130.629
132.487
134.064
135.347
136.327
136.991
137.332
137.343
137.016
136.349
135.338
133.984
132.287
130.251
127.88
125.18
122.161
118.833
115.206
111.294
107.113
102.677
98.006
93.117
88.033
82.775
77.365
71.828
66.188
60.47
54.699
48.9
43.099
37.32
31.588
25.927
20.36
14.91
9.598
4.445
-0.529
-5.306
-9.869
-14.204
-18.297
-22.135
-25.709
-29.01
-32.034
-34.774
-37.227
-39.388
-41.257
-42.836
-44.129
-45.144
-45.88
-46.351
-46.578
-46.584
-46.388
-46.01
-45.448
-44.709
-43.824
-42.794
-41.586
-40.19
-38.598
-36.814
-34.903
-32.924
-30.852
-28.775
-26.948
-25.419
-24.107
-23.073
-22.138
-21.638
-22.83
-25.53
-28.494
-29.703
-25.563
-15.617
-3.15
7.178
9.682
2.349
-11.504
-25.84
-35.023
-36.175
-30.362
-22.431
-16.059
-13.192
-14.616
-17.899
-21.378
-24.603
-26.754
-28.488
-30.358
-32.137
-33.948
-35.721
-37.274
-38.705
-40.094
-41.421
-42.703
-43.951
-45.134
-46.231
-47.23
-48.107
-48.837
-49.419
-49.848
-50.117
-50.223
-50.165
-49.939
-49.544
-48.986
-48.269
-47.39
-46.35
-45.152
-43.799
-42.306
-40.694
-38.965
-37.125
-35.207
-33.241
-31.256
-29.287
-27.332
-25.378
-23.46
-21.628
-19.813
-17.932
-16.066
-14.226
-12.41
-10.855
-8.981
-6.226
-3.43
-0.858
-0.038
-2.799
-7.142
-11.737
-14.597
-12.986
-9.329
-5.677
-3.437
-4.931
-8.488
-12.414
-16.325
-19.183
-21.579
-24.28
-27.134
-30.23
-33.5
-36.763
-40.1
-43.576
-47.141
-50.763
-54.418
-58.067
-61.686
-65.261
-68.762
-72.145
-75.372
-78.392
-81.163
-83.651
-85.833
-87.704
-89.244
-90.422
-91.249
-91.76
-92.005
-92.063
-91.965
-91.666
-91.174
-90.542
-89.791
-88.935
-87.902
-86.458
-84.428
-81.795
-78.548
-74.722
-70.448
-65.779
-60.96
-56.594
-53.225
-51.137
-50.374
-50.57
-51.075
-51.439
-50.911
-48.173
-41.947
-31.167
-15.308
5.218
29.55
57.051
86.526
115.985
143.197
165.667
181.417
189.581
189.57
180.604
162.762
137.108
105.304
69.822
33.161
-2.757
-35.913
-63.848
-85.495
-101.358
-111.278
-115.307
-112.919
-101.843
-83.858
-64.225
-47.677
-39.916
-41.648
-48.085
-55.418
-59.57
-59.266
-57.143
-54.781
-53.35
-53.279
-53.415
-53.338
-53.264
-53.392
-54.226
-55.988
-58.527
-61.724
-65.456
-69.553
-73.887
-78.33
-82.731
-87.003
-91.101
-94.969
-98.574
-101.89
-104.882
-107.531
-109.826
-111.754
-113.314
-114.515
-115.364
-115.881
-116.091
-116.014
-115.681
-115.112
-114.315
-113.298
-112.061
-110.602
-108.922
-107.019
-104.884
-102.517
-99.917
-97.084
-94.023
-90.737
-87.227
-83.498
-79.552
-75.396
-71.04
-66.498
-61.784
-56.915
-51.909
-46.787
-41.57
-36.282
-30.944
-25.577
-20.201
-14.837
-9.509
-4.236
0.958
6.054
11.03
15.864
20.535
25.025
29.313
33.383
37.218
40.804
44.126
47.172
49.931
52.394
54.554
56.405
57.941
59.161
60.062
60.648
60.92
60.884
60.545
59.912
58.994
57.802
56.35
54.651
52.722
50.58
48.243
45.73
43.063
40.263
37.351
34.351
31.285
28.175
25.046
21.921
18.823
15.773
12.796
9.915
7.15
4.524
2.056
-0.234
-2.328
-4.209
-5.86
-7.267
-8.418
-9.299
-9.9
-10.211
-10.225
-9.936
-9.339
-8.432
-7.215
-5.69
-3.861
-1.735
0.68
3.375
6.342
9.57
13.047
16.761
20.703
24.86
29.221
33.772
38.495
43.371
48.38
53.503
58.718
64.002
69.331
74.682
80.034
85.373
90.681
95.938
101.121
106.203
111.164
115.989
120.668
125.192
129.556
133.759
137.816
141.755
145.603
149.375
153.072
156.681
160.192
163.595
166.881
170.041
173.048
175.869
178.483
180.871
183.012
184.878
186.409
187.52
188.143
188.231
187.772
186.787
185.297
183.334
180.95
178.213
175.227
172.1
168.914
165.734
162.628
159.664
156.952
154.633
152.816
151.584
150.987
151.029
151.714
153.029
154.917
157.291
160.03
162.987
166.055
169.156
172.206
175.13
177.825
180.16
182.038
183.38
184.117
184.216
183.641
182.36
180.389
177.766
174.55
170.839
166.7
162.174
157.313
152.146
146.706
141.054
135.224
129.236
123.128
116.909
110.576
104.162
97.679
91.096
84.409
77.58
70.556
63.34
55.968
48.444
40.769
33.06
25.426
17.812
10.276
2.927
-4.477
-11.405
-17.168
-22.57
-27.882
-34.365
-44.442
-56.682
-68.825
-78.579
-81.585
-78.346
-73.052
-68.555
-69.324
-76.648
-86.371
-96.027
-103.169
-105.977
-106.974
-107.789
-108.884
-111.28
-114.224
-116.945
-119.532
-121.73
-123.436
-124.765
-125.721
-126.125
-125.69
-124.296
-121.907
-118.675
-115.048
-111.138
-106.687
-101.64
-96.001
-89.687
-82.712
-74.708
-64.863
-52.755
-38.275
-21.493
-2.906
17.046
38.058
59.331
79.722
97.968
112.589
122.614
127.686
127.364
121.26
109.271
91.465
68.736
42.722
14.694
-14.266
-42.908
-70.015
-94.095
-113.666
-128.225
-137.996
-143.15
-144.078
-141.36
-135.742
-128.596
-121.33
-114.712
-109.118
-104.769
-101.687
-99.852
-99.063
-98.687
-98.136
-97.131
-95.573
-93.569
-91.294
-88.857
-86.441
-84.343
-82.768
-81.798
-81.432
-81.543
-81.986
-82.66
-83.442
-84.199
-84.847
-85.331
-85.615
-85.686
-85.533
-85.131
-84.468
-83.541
-82.347
-80.891
-79.183
-77.24
-75.09
-72.766
-70.3
-67.726
-65.064
-62.326
-59.518
-56.642
-53.699
-50.687
-47.603
-44.436
-41.182
-37.839
-34.402
-30.87
-27.237
-23.498
-19.649
-15.685
-11.605
-7.412
-3.11
1.294
5.79
10.366
15.011
19.706
24.438
29.191
33.948
38.693
43.409
48.076
52.676
57.189
61.595
65.872
70
73.956
77.719
81.268
84.582
87.641
90.428
92.923
95.11
96.974
98.5
99.676
100.49
100.933
100.997
100.675
99.965
98.863
97.369
95.486
93.218
90.571
87.552
84.172
80.442
76.376
71.988
67.296
62.317
57.072
51.582
45.868
39.954
33.866
27.626
21.261
14.797
8.258
1.672
-4.938
-11.546
-18.128
-24.659
-31.118
-37.482
-43.729
-49.841
-55.797
-61.582
-67.177
-72.57
-77.746
-82.693
-87.402
-91.864
-96.072
-100.021
-103.706
-107.125
-110.278
-113.165
-115.789
-118.153
-120.261
-122.121
-123.739
-125.124
-126.284
-127.23
-127.972
-128.521
-128.89
-129.089
-129.131
-129.03
-128.797
-128.447
-127.992
-127.445
-126.819
-126.128
-125.385
-124.601
-123.789
-122.96
-122.127
-121.3
-120.489
-119.705
-118.957
-118.253
-117.601
-117.009
-116.482
-116.026
-115.646
-115.346
-115.128
-114.995
-114.948
-114.988
-115.116
-115.329
-115.628
-116.01
-116.472
-117.011
-117.621
-118.298
-119.036
-119.828
-120.665
-121.54
-122.444
-123.368
-124.303
-125.238
-126.161
-127.062
-127.933
-128.763
-129.543
-130.261
-130.903
-131.459
-131.925
-132.288
-132.528
-132.626
-132.566
-132.339
-131.957
-131.417
-130.696
-129.801
-128.77
-127.631
-126.418
-125.133
-123.73
-122.194
-120.586
-118.86
-116.828
-114.451
-111.8
-108.86
-105.848
-102.401
-97.305
-90.801
-84.038
-78.853
-78.741
-83.597
-89.922
-94.258
-91.685
-81.783
-69.258
-57.764
-51.201
-50.355
-51.733
-53.166
-53.214
-51.413
-49.2
-47.25
-45.509
-44.027
-42.584
-41.111
-39.791
-38.655
-37.638
-36.714
-35.861
-35.058
-34.285
-33.511
-32.682
-31.763
-30.752
-29.654
-28.488
-27.271
-26.018
-24.733
-23.429
-22.152
-20.963
-19.949
-19.201
-18.765
-18.656
-18.864
-19.404
-20.314
-21.571
-23.045
-24.482
-25.639
-26.393
-26.789
-26.881
-26.528
-25.585
-24.024
-22.012
-19.808
-17.466
-14.684
-11.026
-6.382
-0.731
6.084
14.342
24.447
36.63
50.748
66.521
84.08
103.589
124.861
147.547
171.133
194.987
218.46
240.624
259.846
274.344
282.756
283.976
277.082
261.586
237.605
206.041
168.811
128.419
87.34
47.964
12.739
-16.227
-37.7
-51.166
-56.859
-55.807
-49.383
-39.066
-26.694
-14.054
-2.136
8.294
16.5
22.324
25.99
27.864
28.548
28.538
27.817
26.355
25.158
25.639
27.497
29.701
30.119
25.104
15.453
4.845
-3.315
-3.894
3.161
13.003
22.004
25.998
24.275
20.352
16.306
13.769
13.334
13.508
13.886
14.278
13.392
11.735
10.616
11.749
19.716
35.654
55.715
74.93
83.976
77.368
59.043
35.268
17.228
14.868
27.615
51.539
78.835
99.248
110.1
111.93
107
101.793
99.318
100.34
105.76
113.145
120.923
128.852
135.964
142.722
149.664
156.467
163.025
169.193
174.785
179.916
185.106
189.985
193.238
195.214
196.819
200.359
210.737
227.38
245.436
259.379
260.387
248.322
231.812
218.306
217.124
229.5
246.81
262.958
272.263
273.286
271.148
268.753
267.491
267.912
268.228
267.615
266.282
264.148
261.307
257.712
253.084
247.312
240.409
232.364
223.179
212.912
201.696
189.71
177.117
164.039
150.554
136.716
122.621
108.378
94.103
79.929
65.964
52.286
38.974
26.092
13.673
1.734
-9.748
-20.838
-31.574
-41.972
-52.037
-61.75
-71.105
-80.11
-88.768
-97.083
-105.062
-112.7
-120
-126.97
-133.601
-139.878
-145.77
-151.229
-156.224
-160.74
-164.769
-168.312
-171.374
-173.961
-176.084
-177.765
-179.022
-179.872
-180.331
-180.409
-180.126
-179.503
-178.566
-177.343
-175.86
-174.141
-172.21
-170.087
-167.795
-165.349
-162.768
-160.065
-157.258
-154.365
-151.402
-148.381
-145.314
-142.22
-139.108
-135.982
-132.847
-129.701
-126.55
-123.433
-120.378
-117.39
-114.503
-111.755
-109.159
-106.757
-104.555
-102.459
-100.394
-98.366
-96.278
-93.948
-91.419
-88.753
-85.955
-83.471
-81.083
-77.542
-73.101
-68.75
-66.638
-71.473
-83.925
-99.647
-111.779
-110.769
-92.784
-63.916
-36.052
-21.556
-27.455
-50.293
-77.155
-97.179
-103.61
-95.616
-82.267
-70.17
-62.596
-61.894
-64.052
-66.192
-68.011
-68.301
-68
-68.027
-67.94
-67.77
-67.463
-66.78
-65.822
-64.712
-63.444
-62.048
-60.572
-59.013
-57.344
-55.557
-53.638
-51.565
-49.349
-46.999
-44.509
-41.886
-39.138
-36.271
-33.296
-30.225
-27.066
-23.828
-20.524
-17.166
-13.773
-10.362
-6.949
-3.553
-0.19
3.122
6.363
9.517
12.566
15.496
18.297
20.956
23.461
25.797
27.953
29.914
31.673
33.22
34.546
35.643
36.506
37.132
37.524
37.684
37.615
37.312
36.763
35.962
34.904
33.59
32.049
30.312
28.405
26.371
24.251
22.072
19.913
17.85
15.845
13.875
11.915
9.924
8.022
6.357
4.885
3.557
2.493
1.744
1.46
1.822
2.53
3.223
3.808
4.14
4.002
3.331
1.813
-0.955
-4.674
-8.964
-13.568
-17.985
-21.817
-24.883
-26.762
-27.012
-25.825
-23.45
-20.199
-16.802
-13.845
-11.715
-10.696
-10.697
-11.015
-10.793
-9.155
-4.804
3.762
17.947
38.619
65.917
98.325
133.922
172.007
210.753
249.095
285.803
316.141
337.131
346.008
339.741
320.612
291.143
254.223
214.733
173.887
132.267
91.398
52.279
17.725
-9.605
-28.808
-40.711
-46.895
-47.587
-43.41
-33.921
-19.055
-2.965
11.657
22.121
25.431
24.375
21.302
18.037
17.839
19.777
22.559
25.941
28.665
31.121
33.963
36.877
39.711
42.097
43.682
44.557
44.91
44.892
44.658
44.326
44
43.805
43.823
44.094
44.645
45.482
46.61
48.038
49.766
51.787
54.091
56.655
59.445
62.429
65.568
68.823
72.161
75.542
78.935
82.322
85.69
89.031
92.343
95.623
98.869
102.09
105.287
108.466
111.633
114.794
117.956
121.133
124.339
127.588
130.891
134.255
137.688
141.195
144.781
148.445
152.178
155.976
159.849
163.807
167.859
172
176.205
180.462
184.784
189.145
193.482
197.744
201.883
205.887
209.822
213.716
217.508
221.273
225.243
229.462
233.854
238.43
242.917
247.751
254.327
262.324
270.433
276.487
276.429
270.465
262.553
256.603
258.26
267.85
280.008
290.703
295.512
293.698
289.469
285.403
283.154
283.122
283.167
281.896
279.058
274.213
267.005
257.269
244.732
230.2
216.554
206.583
201.071
198.176
192.962
180.61
162.776
148.363
150.331
180.823
239.148
310.133
370.934
397.12
378.408
320.666
238.878
153.393
75.976
8.327
-51.979
-110.858
-169.977
-225.907
-274.933
-313.616
-340.847
-358.107
-367.433
-370.65
-369.59
-366.321
-362.58
-359.46
-357.617
-356.922
-356.833
-357.269
-357.228
-355.233
-351.42
-345.799
-339.767
-336.256
-334.392
-332.259
-327.896
-317.227
-301.053
-283.994
-269.103
-260.986
-260.998
-264.631
-269.132
-271.774
-270.356
-267.338
-264.258
-261.45
-259.916
-258.747
-257.114
-255.223
-252.909
-250.213
-247.333
-244.157
-240.562
-236.562
-232.147
-227.311
-222.137
-216.738
-211.243
-205.786
-200.476
-195.367
-190.497
-185.898
-181.583
-177.552
-173.795
-170.302
-167.083
-164.154
-161.525
-159.197
-157.148
-155.346
-153.748
-152.31
-150.995
-149.772
-148.617
-147.513
-146.451
-145.426
-144.442
-143.496
-142.583
-141.69
-140.806
-139.919
-139.024
-138.115
-137.19
-136.246
-135.284
-134.302
-133.301
-132.278
-131.23
-130.152
-129.035
-127.874
-126.664
-125.401
-124.082
-122.704
-121.266
-119.765
-118.202
-116.576
-114.885
-113.127
-111.301
-109.406
-107.439
-105.402
-103.291
-101.109
-98.855
-96.53
-94.138
-91.679
-89.158
-86.577
-83.939
-81.249
-78.512
-75.732
-72.915
-70.067
-67.195
-64.308
-61.418
-58.536
-55.672
-52.836
-50.043
-47.302
-44.627
-42.025
-39.507
-37.08
-34.755
-32.543
-30.455
-28.502
-26.695
-25.047
-23.567
-22.264
-21.147
-20.223
-19.495
-18.967
-18.642
-18.525
-18.628
-18.956
-19.51
-20.287
-21.28
-22.471
-23.839
-25.353
-26.976
-28.672
-30.401
-32.119
-33.792
-35.383
-36.871
-38.228
-39.417
-40.406
-41.171
-41.714
-42.058
-42.237
-42.285
-42.274
-42.293
-42.423
-42.766
-43.408
-44.412
-45.874
-47.863
-50.299
-53.067
-56.242
-59.86
-63.825
-68.152
-72
-74.518
-76.365
-77.765
-80.08
-84.739
-89.491
-92.952
-93.189
-87.829
-79.437
-69.721
-59.932
-52.529
-45.874
-38.25
-29.025
-16.207
0.378
20.001
42.893
68.904
97.771
129.351
162.676
195.642
225.95
251.574
270.395
280.84
281.743
271.841
250.661
219.047
178.668
131.818
81.26
29.368
-21.47
-68.362
-108.766
-140.872
-163.629
-176.972
-181.431
-177.456
-166.027
-148.961
-128.403
-106.597
-85.53
-66.622
-50.933
-39.487
-32.79
-30.643
-32.304
-36.605
-42.314
-48.293
-53.629
-57.522
-59.421
-59.175
-56.985
-53.344
-48.885
-44.297
-40.049
-36.441
-33.676
-31.768
-30.618
-30.031
-29.706
-29.308
-28.644
-27.632
-26.233
-24.479
-22.39
-19.981
-17.313
-14.46
-11.463
-8.341
-5.098
-1.728
1.753
5.308
8.911
12.547
16.209
19.906
23.64
27.414
31.234
35.115
39.068
43.104
47.228
51.44
55.742
60.14
64.641
69.254
73.983
78.83
83.795
88.876
94.067
99.36
104.744
110.206
115.735
121.316
126.936
132.576
138.22
143.85
149.448
154.993
160.459
165.825
171.081
176.21
181.194
186.011
190.625
195.005
199.135
202.971
206.439
209.487
212.076
214.181
215.82
217.007
217.712
218.001
218.101
218.061
217.761
217.209
216.256
215.195
215.102
215.77
216.063
214.148
206.669
193.209
176.251
159.624
149.485
148.346
154.758
164.753
171.01
169.19
158.133
139.887
120.482
104.026
92.881
86.993
83.071
79.005
73.615
66.579
59.107
51.782
44.618
37.683
30.778
23.879
17.201
10.833
4.791
-0.894
-6.219
-11.187
-15.798
-20.065
-24.014
-27.656
-30.981
-33.989
-36.684
-39.07
-41.155
-42.949
-44.457
-45.689
-46.66
-47.384
-47.876
-48.151
-48.223
-48.109
-47.825
-47.387
-46.81
-46.111
-45.304
-44.405
-43.428
-42.388
-41.297
-40.168
-39.015
-37.848
-36.679
-35.519
-34.376
-33.26
-32.179
-31.141
-30.151
-29.216
-28.342
-27.533
-26.793
-26.126
-25.534
-25.019
-24.582
-24.225
-23.947
-23.748
-23.626
-23.581
-23.611
-23.714
-23.888
-24.131
-24.441
-24.816
-25.252
-25.747
-26.298
-26.902
-27.556
-28.256
-28.999
-29.78
-30.596
-31.443
-32.316
-33.209
-34.119
-35.04
-35.965
-36.889
-37.806
-38.709
-39.593
-40.45
-41.274
-42.059
-42.799
-43.487
-44.116
-44.681
-45.174
-45.589
-45.919
-46.159
-46.302
-46.343
-46.276
-46.097
-45.801
-45.385
-44.844
-44.177
-43.38
-42.452
-41.393
-40.201
-38.878
-37.425
-35.846
-34.144
-32.326
-30.398
-28.366
-26.238
-24.023
-21.732
-19.374
-16.96
-14.503
-12.014
-9.507
-6.999
-4.507
-2.047
0.364
2.709
4.97
7.131
9.175
11.088
12.861
14.479
15.93
17.203
18.283
19.159
19.819
20.252
20.45
20.405
20.112
19.569
18.78
17.745
16.468
14.948
13.18
11.164
8.904
6.409
3.693
0.775
-2.319
-5.558
-8.901
-12.307
-15.735
-19.147
-22.51
-25.796
-28.983
-32.049
-34.954
-37.672
-40.18
-42.472
-44.569
-46.487
-48.241
-49.856
-51.368
-52.834
-54.335
-55.941
-57.713
-59.699
-61.896
-64.341
-67.11
-70.175
-73.454
-76.778
-79.83
-82.372
-84.267
-85.269
-85.162
-83.951
-81.703
-78.696
-75.494
-72.478
-69.97
-68.428
-67.95
-68.097
-68.223
-67.456
-64.622
-58.624
-48.221
-31.859
-9.36
17.659
47.51
79.258
114.171
154.986
201.512
248.515
286.583
306.293
303.242
280.049
244.885
205.861
167.811
131.805
95.367
56.789
16.679
-22.949
-58.518
-87.428
-109.081
-123.706
-132.041
-134.828
-132.662
-126.344
-117.435
-107.56
-97.634
-88.431
-80.395
-73.591
-68.147
-64.1
-60.919
-58.083
-55.504
-52.832
-49.898
-46.888
-43.782
-40.596
-37.594
-34.876
-32.368
-30.316
-28.827
-27.783
-27.193
-26.967
-26.941
-27.1
-27.413
-27.674
-27.747
-27.573
-27.065
-26.238
-25.108
-23.635
-21.812
-19.684
-17.285
-14.659
-11.846
-8.857
-5.709
-2.436
0.924
4.339
7.791
11.276
14.794
18.347
21.934
25.562
29.246
33.001
36.839
40.767
44.786
48.902
53.123
57.458
61.912
66.488
71.181
75.985
80.901
85.916
91.006
96.151
101.32
106.491
111.671
116.855
122.015
127.156
132.303
137.451
142.618
147.802
152.91
157.86
162.66
167.188
171.196
174.661
177.643
180.036
182.11
183.606
183.172
181.013
178.41
177.217
181.717
192.915
206.625
217.798
219.058
206.545
185.674
164.007
149.379
147.498
154.847
164.361
170.819
169.87
162.385
152.591
142.604
133.947
126.876
119.946
112.743
105.418
97.909
90.465
83.184
75.897
68.566
61.234
53.888
46.536
39.229
32.007
24.912
17.999
11.299
4.819
-1.424
-7.409
-13.125
-18.559
-23.7
-28.546
-33.09
-37.325
-41.247
-44.855
-48.15
-51.136
-53.817
-56.2
-58.291
-60.101
-61.64
-62.919
-63.953
-64.753
-65.335
-65.713
-65.903
-65.922
-65.784
-65.507
-65.106
-64.597
-63.997
-63.32
-62.581
-61.794
-60.972
-60.127
-59.272
-58.418
-57.574
-56.75
-55.956
-55.198
-54.484
-53.819
-53.21
-52.659
-52.171
-51.748
-51.392
-51.104
-50.883
-50.73
-50.644
-50.622
-50.664
-50.767
-50.926
-51.139
-51.402
-51.709
-52.057
-52.44
-52.854
-53.294
-53.754
-54.23
-54.716
-55.208
-55.701
-56.188
-56.664
-57.124
-57.562
-57.973
-58.35
-58.689
-58.984
-59.229
-59.421
-59.553
-59.621
-59.619
-59.542
-59.386
-59.145
-58.815
-58.39
-57.868
-57.245
-56.519
-55.688
-54.749
-53.702
-52.546
-51.281
-49.907
-48.425
-46.835
-45.139
-43.339
-41.439
-39.444
-37.359
-35.191
-32.946
-30.632
-28.258
-25.832
-23.365
-20.864
-18.342
-15.808
-13.276
-10.758
-8.269
-5.824
-3.44
-1.133
1.082
3.188
5.171
7.018
8.717
10.256
11.627
12.822
13.832
14.649
15.259
15.655
15.827
15.772
15.485
14.961
14.195
13.188
11.947
10.478
8.788
6.876
4.735
2.362
-0.233
-3.034
-6.022
-9.174
-12.472
-15.882
-19.352
-22.826
-26.245
-29.571
-32.793
-35.895
-38.857
-41.65
-44.229
-46.578
-48.71
-50.638
-52.374
-53.928
-55.302
-56.536
-57.726
-58.979
-60.41
-62.104
-64.085
-66.364
-68.932
-71.799
-75.013
-78.532
-82.193
-85.756
-88.981
-91.73
-94.026
-95.839
-96.936
-97.096
-96.198
-94.425
-92.208
-89.778
-87.05
-83.727
-79.594
-74.624
-68.871
-61.965
-53.039
-41.264
-26.063
-7.436
14.239
38.674
65.672
94.543
123.766
151.296
174.886
192.677
203.272
205.315
197.512
179.146
151.244
116.524
77.23
35.323
-8.291
-54.234
-99.169
-137.482
-164.666
-175.495
-170.522
-156.017
-137.135
-119.776
-107.133
-97.504
-89.853
-83.436
-77.742
-73.757
-71.769
-70.975
-70.362
-69.113
-66.879
-63.764
-60.094
-56.112
-52.006
-48.116
-44.832
-42.347
-40.714
-39.853
-39.571
-39.722
-40.182
-40.793
-41.393
-41.87
-42.146
-42.175
-41.95
-41.457
-40.677
-39.604
-38.236
-36.578
-34.643
-32.456
-30.039
-27.423
-24.645
-21.744
-18.761
-15.723
-12.645
-9.533
-6.387
-3.201
0.03
3.318
6.677
10.117
13.644
17.262
20.978
24.798
28.736
32.81
37.031
41.402
45.925
50.59
55.383
60.279
65.241
70.225
75.199
80.137
85.028
89.872
94.668
99.415
104.116
108.759
113.335
117.844
122.268
126.599
130.847
135.031
139.196
143.4
147.666
151.998
156.385
160.776
165.118
169.347
173.366
177.104
180.502
183.498
186.058
188.15
189.711
190.675
190.954
190.437
189.059
186.784
183.59
179.51
174.592
168.911
162.595
155.751
148.466
140.821
132.873
124.673
116.298
107.829
99.355
90.993
82.829
74.935
67.38
60.191
53.376
46.923
40.777
34.891
29.244
23.818
18.615
13.648
8.91
4.402
0.124
-3.941
-7.805
-11.476
-14.973
-18.295
-21.434
-24.373
-27.078
-29.519
-31.682
-33.559
-35.149
-36.464
-37.51
-38.301
-38.862
-39.208
-39.357
-39.322
-39.115
-38.752
-38.25
-37.632
-36.919
-36.135
-35.301
-34.436
-33.557
-32.68
-31.817
-30.98
-30.174
-29.407
-28.684
-28.013
-27.4
-26.851
-26.37
-25.961
-25.628
-25.373
-25.196
-25.096
-25.071
-25.118
-25.232
-25.409
-25.642
-25.927
-26.254
-26.618
-27.01
-27.424
-27.849
-28.277
-28.7
-29.107
-29.489
-29.838
-30.145
-30.4
-30.597
-30.728
-30.787
-30.769
-30.667
-30.478
-30.196
-29.818
-29.34
-28.759
-28.071
-27.274
-26.368
-25.353
-24.228
-22.997
-21.66
-20.221
-18.684
-17.054
-15.335
-13.532
-11.652
-9.701
-7.687
-5.621
-3.511
-1.368
0.797
2.973
5.148
7.309
9.446
11.547
13.602
15.6
17.528
19.375
21.129
22.776
24.305
25.702
26.952
28.044
28.967
29.712
30.272
30.639
30.808
30.776
30.541
30.099
29.447
28.582
27.502
26.21
24.708
23.001
21.095
18.996
16.718
14.274
11.675
8.93
6.041
3.007
-0.164
-3.459
-6.863
-10.359
-13.93
-17.552
-21.187
-24.783
-28.291
-31.673
-34.911
-37.993
-40.894
-43.584
-46.024
-48.182
-50.056
-51.645
-52.937
-53.907
-54.53
-54.819
-54.85
-54.728
-54.562
-54.43
-54.35
-54.369
-54.581
-55.013
-55.65
-56.355
-56.821
-56.82
-56.25
-54.99
-52.982
-50.291
-47
-43.478
-40.424
-38.408
-37.906
-39.246
-42.27
-46.441
-51.005
-54.677
-55.831
-52.959
-44.472
-29.145
-6.817
21.913
55.837
92.975
131.026
167.568
199.634
224.459
240.47
246.879
243.545
231.015
209.953
181.435
147.632
111.026
73.431
36.334
1.002
-31.453
-59.508
-81.92
-98.595
-110.03
-116.638
-118.853
-117.158
-112.276
-105.64
-98.789
-92.537
-87.188
-82.897
-79.751
-77.865
-77.215
-77.31
-77.423
-77.165
-76.466
-75.416
-74.202
-72.927
-71.64
-70.531
-69.881
-69.838
-70.414
-71.522
-72.966
-74.581
-76.258
-77.861
-79.268
-80.401
-81.186
-81.586
-81.605
-81.241
-80.493
-79.369
-77.867
-75.995
-73.777
-71.237
-68.416
-65.358
-62.105
-58.705
-55.194
-51.594
-47.923
-44.194
-40.41
-36.575
-32.689
-28.746
-24.748
-20.7
-16.603
-12.463
-8.281
-4.057
0.209
4.518
8.867
13.252
17.667
22.102
26.548
30.992
35.421
39.82
44.173
48.468
52.692
56.834
60.882
64.82
68.638
72.321
75.857
79.233
82.433
85.444
88.251
90.843
93.206
95.331
97.206
98.822
100.17
101.243
102.033
102.537
102.748
102.662
102.278
101.594
100.611
99.33
97.755
95.89
93.741
91.316
88.623
85.672
82.474
79.041
75.384
71.519
67.46
63.222
58.821
54.277
49.605
44.825
39.956
35.016
30.023
24.998
19.958
14.922
9.907
4.931
0.012
-4.835
-9.593
-14.246
-18.781
-23.185
-27.445
-31.55
-35.491
-39.259
-42.847
-46.249
-49.461
-52.48
-55.302
-57.928
-60.358
-62.593
-64.637
-66.493
-68.167
-69.665
-70.993
-72.16
-73.174
-74.044
-74.78
-75.392
-75.891
-76.287
-76.593
-76.82
-76.98
-77.085
-77.148
-77.18
-77.194
-77.2
-77.209
-77.232
-77.278
-77.358
-77.478
-77.648
-77.873
-78.16
-78.514
-78.939
-79.437
-80.012
-80.662
-81.39
-82.194
-83.073
-84.024
-85.044
-86.13
-87.277
-88.479
-89.73
-91.024
-92.351
-93.705
-95.075
-96.452
-97.826
-99.186
-100.523
-101.825
-103.084
-104.288
-105.427
-106.492
-107.474
-108.363
-109.15
-109.828
-110.39
-110.828
-111.138
-111.316
-111.358
-111.262
-111.025
-110.649
-110.131
-109.473
-108.676
-107.744
-106.678
-105.483
-104.166
-102.733
-101.193
-99.559
-97.84
-96.048
-94.198
-92.301
-90.369
-88.416
-86.452
-84.487
-82.532
-80.595
-78.689
-76.825
-75.016
-73.277
-71.618
-70.05
-68.583
-67.225
-65.986
-64.866
-63.868
-62.993
-62.246
-61.639
-61.182
-60.879
-60.727
-60.721
-60.841
-61.069
-61.381
-61.734
-62.091
-62.408
-62.643
-62.776
-62.797
-62.693
-62.45
-62.041
-61.437
-60.638
-59.658
-58.511
-57.226
-55.838
-54.389
-52.972
-51.676
-50.575
-49.75
-49.254
-49.11
-49.338
-49.943
-50.892
-52.186
-53.826
-55.712
-57.686
-59.479
-60.778
-61.386
-61.207
-60.119
-57.87
-54.291
-49.468
-43.852
-38.106
-32.593
-27.171
-21.455
-15.347
-8.799
-1.403
7.775
20.198
37.047
58.452
83.82
112.639
144.283
177.708
211.192
241.869
266.641
283.375
291.338
290.728
281.771
264.213
236.163
195.623
143.809
85.663
30.503
-11.277
-34.365
-40.27
-36.236
-30.33
-27.164
-26.692
-25.74
-22.576
-17.409
-11.551
-7.156
-4.939
-4.317
-4.787
-5.576
-5.818
-5.218
-3.654
-1.03
2.38
6.236
10.353
14.445
18.15
21.299
23.792
25.573
26.763
27.472
27.767
27.78
27.633
27.413
27.237
27.177
27.258
27.53
28.023
28.747
29.729
30.976
32.473
34.216
36.186
38.357
40.711
43.217
45.84
48.546
51.29
54.036
56.765
59.459
62.108
64.706
67.248
69.733
72.172
74.572
76.937
79.272
81.579
83.862
86.126
88.381
90.632
92.885
95.142
97.403
99.667
101.933
104.196
106.446
108.675
110.877
113.046
115.174
117.254
119.274
121.227
123.108
124.906
126.599
128.165
129.582
130.837
131.936
132.869
133.606
134.147
134.524
134.759
134.876
134.872
134.682
134.283
133.723
132.94
131.718
130.008
127.869
125.274
122.444
118.975
113.574
106.51
98.985
92.955
92.115
96.296
101.799
104.955
100.545
88.195
72.879
58.456
49.07
45.51
44.091
42.545
39.348
34.031
28.126
22.35
16.671
11.163
5.62
0.003
-5.466
-10.705
-15.733
-20.527
-25.063
-29.336
-33.341
-37.088
-40.601
-43.885
-46.917
-49.689
-52.2
-54.449
-56.437
-58.167
-59.638
-60.854
-61.823
-62.554
-63.057
-63.342
-63.42
-63.302
-63.002
-62.533
-61.908
-61.144
-60.253
-59.251
-58.153
-56.975
-55.731
-54.435
-53.104
-51.75
-50.388
-49.03
-47.69
-46.378
-45.107
-43.884
-42.721
-41.623
-40.599
-39.653
-38.789
-38.012
-37.322
-36.722
-36.211
-35.789
-35.454
-35.202
-35.03
-34.934
-34.908
-34.946
-35.04
-35.183
-35.368
-35.585
-35.827
-36.085
-36.349
-36.612
-36.863
-37.096
-37.3
-37.467
-37.589
-37.658
-37.666
-37.607
-37.474
-37.263
-36.969
-36.59
-36.123
-35.567
-34.922
-34.188
-33.366
-32.458
-31.467
-30.398
-29.254
-28.042
-26.769
-25.445
-24.081
-22.689
-21.28
-19.864
-18.456
-17.067
-15.709
-14.392
-13.123
-11.913
-10.771
-9.71
-8.74
-7.873
-7.117
-6.484
-5.983
-5.62
-5.403
-5.331
-5.406
-5.626
-5.994
-6.513
-7.194
-8.042
-9.055
-10.231
-11.563
-13.037
-14.639
-16.342
-18.112
-19.914
-21.713
-23.484
-25.2
-26.841
-28.393
-29.83
-31.12
-32.24
-33.172
-33.916
-34.481
-34.877
-35.111
-35.199
-35.189
-35.151
-35.159
-35.281
-35.575
-36.065
-36.778
-37.797
-39.131
-40.729
-42.49
-44.166
-45.51
-46.381
-46.565
-45.803
-44.071
-41.421
-38.044
-34.54
-31.395
-28.951
-27.771
-28.194
-29.915
-32.441
-34.963
-35.954
-33.992
-27.707
-15.234
3.998
28.762
58.092
91.318
129.297
174.31
225.271
276.505
318.677
342.288
343.423
324.727
293.825
258.665
223.466
188.958
153.309
115.183
75.597
37.12
3.117
-24.073
-43.874
-56.794
-63.747
-65.448
-62.597
-56.272
-48.106
-39.815
-32.457
-26.44
-21.832
-18.586
-16.637
-15.783
-15.391
-14.664
-13.196
-10.896
-7.917
-4.53
-0.907
2.807
6.337
9.35
11.653
13.185
14.023
14.331
14.233
13.837
13.254
12.611
12.046
11.655
11.504
11.627
12.038
12.753
13.795
15.175
16.888
18.922
21.249
23.839
26.672
29.722
32.958
36.348
39.849
43.429
47.071
50.763
54.503
58.289
62.118
65.992
69.923
73.918
77.987
82.135
86.363
90.672
95.069
99.556
104.137
108.814
113.581
118.432
123.361
128.357
133.408
138.501
143.617
148.739
153.85
158.932
163.969
168.941
173.828
178.61
183.266
187.774
192.113
196.259
200.189
203.879
207.309
210.456
213.3
215.82
217.998
219.816
221.259
222.312
222.962
223.198
223.011
222.392
221.338
219.845
217.914
215.545
212.743
209.516
205.872
201.822
197.381
192.563
187.386
181.869
176.034
169.904
163.503
156.857
149.993
142.94
135.726
128.382
120.939
113.425
105.873
98.311
90.769
83.277
75.863
68.553
61.373
54.35
47.507
40.865
34.445
28.266
22.343
16.693
11.326
6.253
1.483
-2.98
-7.13
-10.966
-14.487
-17.695
-20.595
-23.19
-25.487
-27.497
-29.227
-30.691
-31.899
-32.867
-33.607
-34.135
-34.465
-34.615
-34.599
-34.435
-34.138
-33.725
-33.213
-32.619
-31.958
-31.248
-30.503
-29.738
-28.967
-28.205
-27.463
-26.752
-26.084
-25.466
-24.909
-24.421
-24.009
-23.679
-23.438
-23.289
-23.237
-23.285
-23.436
-23.69
-24.05
-24.514
-25.084
-25.759
-26.539
-27.422
-28.407
-29.492
-30.674
-31.95
-33.315
-34.765
-36.294
-37.896
-39.565
-41.292
-43.071
-44.893
-46.752
-48.64
-50.552
-52.479
-54.416
-56.353
-58.285
-60.205
-62.102
-63.966
-65.785
-67.547
-69.242
-70.861
-72.395
-73.834
-75.17
-76.394
-77.503
-78.49
-79.347
-80.062
-80.616
-81
-81.217
-81.272
-81.179
-80.952
-80.598
-80.134
-79.584
-78.962
-78.275
-77.517
-76.661
-75.699
-74.636
-73.486
-72.285
-71.046
-69.769
-68.447
-67.071
-65.626
-64.108
-62.49
-60.724
-58.797
-56.724
-54.555
-52.388
-50.289
-48.299
-46.448
-44.745
-43.213
-41.899
-40.838
-40.06
-39.609
-39.53
-39.896
-40.809
-42.317
-44.419
-47.07
-50.157
-53.596
-57.324
-61.274
-65.394
-69.624
-73.893
-78.158
-82.391
-86.544
-90.546
-94.309
-97.732
-100.768
-103.413
-105.688
-107.648
-109.344
-110.854
-112.283
-113.721
-115.248
-116.917
-118.774
-120.891
-123.314
-126.008
-128.867
-131.717
-134.393
-136.798
-138.753
-139.962
-140.309
-139.899
-139.079
-138.365
-137.967
-138.02
-138.973
-141.286
-145.107
-149.368
-151.594
-150.593
-146.344
-139.887
-133.912
-126.54
-113.551
-92.59
-59.058
-13.524
38.829
95.902
150.369
194.289
224.825
236.842
230.915
213.052
185.851
153.588
118.726
79.803
37.653
-6.681
-51.827
-94.277
-131.043
-160.316
-181.212
-194.234
-200.445
-200.663
-195.817
-187.208
-176.64
-165.975
-156.387
-148.341
-141.829
-136.706
-132.851
-129.999
-127.495
-124.578
-120.931
-116.567
-111.705
-106.766
-102.032
-97.56
-93.674
-90.704
-88.405
-87.272
-87.78
-88.904
-90.455
-90.353
-85.366
-76.995
-67.265
-60.977
-65.149
-78.902
-97.802
-114.374
-119.241
-111.27
-94.784
-76.734
-64.733
-60.781
-62.414
-65.778
-66.873
-64.134
-59.217
-53.74
-49.917
-49.612
-50.588
-51.292
-49.7
-43.117
-34.115
-24.827
-16.748
-12.305
-9.733
-7.236
-4.372
-0.025
5.174
10.401
15.8
21.259
26.819
32.63
38.559
44.49
50.44
56.403
62.359
68.304
74.216
80.071
85.86
91.574
97.194
102.704
108.081
113.299
118.347
123.208
127.876
132.35
136.586
140.543
144.187
147.476
150.4
152.947
155.096
156.833
158.136
158.98
159.362
159.283
158.717
157.652
156.064
153.923
151.268
148.135
144.551
140.552
136.154
131.369
126.233
120.78
115.035
109.034
102.796
96.342
89.722
82.981
76.168
69.341
62.508
55.675
48.865
42.091
35.38
28.761
22.244
15.841
9.578
3.479
-2.433
-8.131
-13.611
-18.869
-23.898
-28.701
-33.259
-37.554
-41.581
-45.331
-48.801
-51.991
-54.894
-57.508
-59.841
-61.905
-63.708
-65.267
-66.587
-67.677
-68.549
-69.215
-69.689
-69.987
-70.122
-70.109
-69.962
-69.698
-69.331
-68.878
-68.349
-67.755
-67.109
-66.42
-65.699
-64.956
-64.198
-63.433
-62.67
-61.914
-61.173
-60.451
-59.752
-59.079
-58.435
-57.822
-57.239
-56.687
-56.167
-55.675
-55.212
-54.775
-54.363
-53.973
-53.604
-53.251
-52.914
-52.59
-52.276
-51.97
-51.67
-51.374
-51.082
-50.793
-50.507
-50.223
-49.943
-49.667
-49.396
-49.131
-48.875
-48.628
-48.392
-48.169
-47.961
-47.77
-47.599
-47.449
-47.324
-47.225
-47.156
-47.117
-47.112
-47.141
-47.204
-47.303
-47.437
-47.607
-47.811
-48.048
-48.316
-48.614
-48.938
-49.284
-49.648
-50.024
-50.407
-50.79
-51.165
-51.525
-51.862
-52.167
-52.434
-52.653
-52.818
-52.92
-52.952
-52.907
-52.777
-52.555
-52.234
-51.808
-51.271
-50.619
-49.846
-48.951
-47.931
-46.787
-45.52
-44.129
-42.616
-40.983
-39.234
-37.375
-35.414
-33.356
-31.206
-28.981
-26.698
-24.375
-22.034
-19.686
-17.335
-15.008
-12.73
-10.496
-8.306
-6.161
-4.054
-2.014
-0.088
1.727
3.449
4.976
6.189
7.138
7.805
8.162
8.423
7.983
6.256
4.08
1.707
0.672
2.803
6.06
9.089
9.877
5.664
-1.077
-8.244
-14.384
-17.098
-18.029
-18.841
-19.873
-22.141
-25.023
-27.724
-30.367
-32.818
-35.096
-37.338
-39.439
-41.322
-43.023
-44.554
-45.918
-47.159
-48.34
-49.54
-50.85
-52.334
-54.014
-55.882
-57.965
-60.312
-62.906
-65.665
-68.392
-70.801
-72.639
-73.742
-73.974
-73.189
-71.397
-68.712
-65.425
-62.091
-59.27
-57.414
-56.708
-57.052
-57.926
-58.502
-57.851
-54.754
-47.835
-35.748
-17.585
6.924
37.176
71.836
109.449
148.185
185.651
219.154
246.1
264.347
272.698
270.781
258.349
235.691
204.095
165.604
122.751
78.271
34.473
-6.647
-42.877
-72.369
-94.279
-108.575
-115.892
-117.369
-114.125
-107.364
-98.819
-90.193
-82.528
-76.353
-71.744
-68.448
-66.269
-64.979
-63.956
-62.507
-60.29
-57.218
-53.463
-49.346
-45.069
-40.788
-36.768
-33.309
-30.587
-28.661
-27.449
-26.791
-26.564
-26.658
-26.965
-27.353
-27.681
-27.846
-27.777
-27.437
-26.812
-25.887
-24.642
-23.069
-21.178
-18.987
-16.528
-13.833
-10.922
-7.826
-4.574
-1.202
2.245
5.736
9.255
12.789
16.337
19.9
23.477
27.073
30.702
34.376
38.109
41.908
45.78
49.73
53.767
57.901
62.14
66.489
70.946
75.511
80.181
84.95
89.81
94.751
99.76
104.824
109.929
115.063
120.212
125.358
130.485
135.574
140.606
145.562
150.42
155.156
159.748
164.173
168.408
172.431
176.218
179.749
183.001
185.954
188.588
190.886
192.828
194.401
195.588
196.378
196.76
196.726
196.271
195.388
194.078
192.34
190.176
187.591
184.593
181.189
177.392
173.214
168.672
163.782
158.564
153.04
147.231
141.163
134.861
128.352
121.662
114.821
107.857
100.798
93.675
86.516
79.35
72.206
65.11
58.091
51.174
44.383
37.741
31.27
24.991
18.922
13.08
7.479
2.134
-2.945
-7.747
-12.266
-16.495
-20.43
-24.07
-27.414
-30.463
-33.221
-35.692
-37.882
-39.798
-41.449
-42.845
-43.995
-44.913
-45.61
-46.1
-46.395
-46.511
-46.462
-46.263
-45.927
-45.469
-44.904
-44.244
-43.505
-42.697
-41.834
-40.929
-39.991
-39.032
-38.061
-37.089
-36.123
-35.171
-34.241
-33.338
-32.469
-31.638
-30.849
-30.107
-29.415
-28.776
-28.191
-27.662
-27.191
-26.778
-26.423
-26.126
-25.885
-25.7
-25.569
-25.49
-25.461
-25.481
-25.546
-25.655
-25.804
-25.992
-26.215
-26.471
-26.756
-27.067
-27.401
-27.754
-28.123
-28.503
-28.892
-29.284
-29.677
-30.065
-30.445
-30.81
-31.157
-31.48
-31.772
-32.028
-32.243
-32.41
-32.525
-32.58
-32.571
-32.493
-32.341
-32.111
-31.798
-31.398
-30.907
-30.321
-29.638
-28.855
-27.969
-26.979
-25.884
-24.685
-23.382
-21.977
-20.473
-18.872
-17.179
-15.397
-13.533
-11.593
-9.584
-7.514
-5.392
-3.229
-1.038
1.169
3.377
5.57
7.734
9.854
11.913
13.899
15.796
17.593
19.279
20.842
22.272
23.556
24.681
25.635
26.405
26.981
27.355
27.519
27.469
27.2
26.714
26.014
25.101
23.973
22.621
21.038
19.228
17.198
14.962
12.544
9.965
7.254
4.458
1.617
-1.222
-4.02
-6.76
-9.43
-12.012
-14.484
-16.805
-18.939
-20.874
-22.616
-24.174
-25.56
-26.789
-27.885
-28.914
-29.955
-31.085
-32.374
-33.856
-35.543
-37.432
-39.537
-41.907
-44.542
-47.351
-50.143
-52.643
-54.581
-55.783
-56.121
-55.39
-53.495
-50.483
-46.589
-42.392
-38.548
-35.522
-33.45
-32.253
-31.615
-30.921
-29.282
-25.462
-17.845
-5.418
11.458
32.957
59.356
91.219
130.567
175.35
219.606
257.013
280.138
286.849
280.993
265.883
245.175
220.257
189.316
152.655
111.617
68.247
26.001
-12.463
-44.915
-69.826
-87.011
-96.851
-100.175
-98.12
-91.767
-82.618
-72.716
-63.497
-55.732
-49.817
-45.59
-42.82
-41.391
-40.758
-40.039
-38.734
-36.633
-33.746
-30.389
-26.789
-23.058
-19.465
-16.361
-13.946
-12.313
-11.415
-11.074
-11.154
-11.547
-12.128
-12.769
-13.336
-13.724
-13.871
-13.75
-13.351
-12.663
-11.669
-10.358
-8.74
-6.831
-4.662
-2.262
0.348
3.136
6.071
9.119
12.235
15.394
18.582
21.79
25.016
28.261
31.523
34.809
38.13
41.499
44.925
48.41
51.96
55.586
59.302
63.123
67.057
71.095
75.23
79.456
83.765
88.148
92.588
97.057
101.541
106.041
110.559
115.1
119.656
124.197
128.7
133.137
137.496
141.784
145.993
150.099
154.093
157.972
161.741
165.423
168.998
172.4
175.576
178.469
181.043
183.294
185.204
186.748
187.9
188.62
188.884
188.692
188.019
186.826
185.069
182.689
179.684
176.118
172.042
167.503
162.537
157.152
151.375
145.253
138.823
132.119
125.17
117.989
110.617
103.12
95.562
88.023
80.535
73.085
65.672
58.304
50.992
43.763
36.635
29.602
22.682
15.902
9.292
2.883
-3.309
-9.288
-15.056
-20.62
-25.97
-31.078
-35.924
-40.497
-44.785
-48.783
-52.484
-55.871
-58.946
-61.72
-64.205
-66.415
-68.36
-70.044
-71.472
-72.655
-73.605
-74.337
-74.864
-75.199
-75.358
-75.355
-75.208
-74.934
-74.549
-74.063
-73.488
-72.837
-72.121
-71.353
-70.544
-69.704
-68.843
-67.973
-67.102
-66.241
-65.398
-64.58
-63.794
-63.045
-62.339
-61.68
-61.071
-60.517
-60.019
-59.58
-59.202
-58.888
-58.638
-58.454
-58.338
-58.288
-58.307
-58.393
-58.546
-58.765
-59.048
-59.394
-59.801
-60.266
-60.788
-61.363
-61.99
-62.665
-63.384
-64.144
-64.94
-65.767
-66.619
-67.493
-68.381
-69.278
-70.179
-71.077
-71.966
-72.841
-73.694
-74.519
-75.309
-76.057
-76.755
-77.396
-77.971
-78.472
-78.893
-79.225
-79.462
-79.596
-79.622
-79.535
-79.329
-78.999
-78.543
-77.955
-77.234
-76.379
-75.387
-74.259
-72.996
-71.599
-70.073
-68.423
-66.655
-64.774
-62.788
-60.706
-58.536
-56.29
-53.976
-51.606
-49.192
-46.747
-44.286
-41.823
-39.376
-36.961
-34.598
-32.304
-30.097
-27.996
-26.017
-24.174
-22.483
-20.956
-19.603
-18.436
-17.466
-16.703
-16.159
-15.844
-15.764
-15.925
-16.33
-16.979
-17.874
-19.011
-20.379
-21.972
-23.785
-25.819
-28.08
-30.57
-33.276
-36.185
-39.28
-42.539
-45.942
-49.453
-53.02
-56.597
-60.135
-63.603
-66.994
-70.29
-73.459
-76.466
-79.261
-81.819
-84.149
-86.247
-88.097
-89.692
-91.022
-92.12
-93.076
-93.971
-94.883
-95.875
-96.954
-98.163
-99.561
-101.179
-103.053
-105.08
-106.983
-108.525
-109.501
-109.719
-109.171
-107.805
-105.407
-102.278
-99.112
-96.464
-95.172
-95.26
-95.358
-95.322
-95.697
-97.019
-101.087
-106.198
-107.05
-99.453
-79.629
-47.435
-7.46
36.854
83.45
129.005
170.139
202.387
219.793
221.383
210.722
191.509
168.349
142.742
112.955
78.907
40.978
0.482
-39.68
-77.31
-110.297
-136.798
-156.265
-168.619
-174.087
-172.969
-165.439
-152.466
-136.083
-118.585
-101.874
-87.142
-74.9
-65.777
-60.642
-59.629
-62.008
-66.446
-71.459
-76.195
-80.369
-83.611
-85.355
-85.318
-83.607
-80.807
-77.795
-75.055
-72.691
-70.76
-69.341
-68.495
-68.213
-68.297
-68.367
-68.179
-67.654
-66.776
-65.58
-64.076
-62.238
-60.082
-57.67
-55.061
-52.285
-49.364
-46.292
-43.077
-39.752
-36.341
-32.865
-29.336
-25.756
-22.121
-18.428
-14.672
-10.847
-6.949
-2.979
1.069
5.194
9.395
13.674
18.031
22.468
26.989
31.594
36.282
41.047
45.881
50.774
55.714
60.687
65.68
70.678
75.67
80.64
85.574
90.455
95.267
99.993
104.614
109.111
113.463
117.649
121.65
125.447
129.02
132.351
135.42
138.211
140.707
142.892
144.751
146.27
147.438
148.242
148.675
148.728
148.397
147.678
146.57
145.073
143.19
140.923
138.281
135.27
131.901
128.186
124.137
119.77
115.103
110.153
104.941
99.487
93.814
87.945
81.903
75.714
69.402
62.993
56.513
49.988
43.443
36.905
30.398
23.947
17.575
11.306
5.161
-0.84
-6.676
-12.332
-17.789
-23.032
-28.049
-32.827
-37.356
-41.626
-45.631
-49.364
-52.823
-56.004
-58.908
-61.533
-63.882
-65.958
-67.765
-69.308
-70.593
-71.628
-72.421
-72.981
-73.319
-73.444
-73.369
-73.106
-72.666
-72.062
-71.307
-70.413
-69.393
-68.259
-67.024
-65.7
-64.3
-62.834
-61.314
-59.751
-58.156
-56.54
-54.91
-53.275
-51.645
-50.026
-48.425
-46.849
-45.305
-43.796
-42.329
-40.909
-39.538
-38.221
-36.96
-35.756
-34.61
-33.522
-32.493
-31.522
-30.606
-29.745
-28.936
-28.177
-27.465
-26.796
-26.168
-25.574
-25.01
-24.472
-23.954
-23.45
-22.954
-22.46
-21.964
-21.459
-20.942
-20.405
-19.846
-19.257
-18.635
-17.974
-17.27
-16.518
-15.713
-14.853
-13.935
-12.957
-11.919
-10.822
-9.665
-8.45
-7.18
-5.857
-4.485
-3.067
-1.608
-0.113
1.411
2.956
4.513
6.073
7.624
9.154
10.65
12.1
13.493
14.817
16.063
17.221
18.281
19.237
20.08
20.803
21.393
21.84
22.134
22.268
22.237
22.036
21.661
21.109
20.382
19.485
18.425
17.202
15.811
14.241
12.49
10.565
8.48
6.247
3.881
1.4
-1.168
-3.775
-6.373
-8.924
-11.409
-13.824
-16.159
-18.393
-20.494
-22.422
-24.163
-25.727
-27.111
-28.305
-29.291
-30.061
-30.652
-31.16
-31.687
-32.309
-33.073
-33.985
-35.061
-36.357
-37.877
-39.567
-41.277
-42.759
-43.776
-44.186
-43.907
-42.864
-41.128
-38.843
-36.204
-33.668
-31.756
-30.888
-31.34
-33.109
-35.609
-37.965
-39.434
-38.967
-35.384
-27.543
-14.267
5.061
29.899
59.043
91.382
125.425
159.33
190.954
217.571
236.751
247.203
248.335
239.595
220.912
192.955
157.155
116.018
72.447
28.906
-12.355
-48.881
-78.536
-100.052
-112.996
-117.94
-116.175
-109.036
-98.058
-85.286
-72.713
-61.717
-53.118
-47.119
-43.461
-41.863
-41.876
-42.669
-43.373
-43.435
-42.609
-40.968
-38.754
-36.157
-33.37
-30.685
-28.423
-26.771
-25.763
-25.308
-25.243
-25.415
-25.72
-26.047
-26.259
-26.264
-26.003
-25.434
-24.557
-23.372
-21.862
-20.019
-17.846
-15.345
-12.536
-9.449
-6.105
-2.536
1.226
5.151
9.202
13.349
17.578
21.876
26.236
30.657
35.133
39.66
44.244
48.883
53.577
58.327
63.129
67.981
72.883
77.835
82.836
87.884
92.971
98.089
103.226
108.37
113.509
118.625
123.7
128.718
133.662
138.516
143.263
147.888
152.371
156.694
160.841
164.793
168.532
172.038
175.293
178.278
180.978
183.375
185.456
187.207
188.615
189.668
190.358
190.676
190.615
190.169
189.334
188.109
186.493
184.488
182.098
179.329
176.188
172.685
168.832
164.641
160.127
155.306
150.196
144.815
139.184
133.324
127.256
121.007
114.601
108.064
101.424
94.707
87.936
81.142
74.353
67.588
60.869
54.215
47.644
41.184
34.869
28.708
22.713
16.923
11.371
6.084
1.095
-3.601
-8.03
-12.164
-15.964
-19.516
-22.92
-26.114
-29.103
-31.91
-34.311
-36.923
-40.344
-43.735
-46.849
-48.138
-45.75
-41.761
-37.557
-35.197
-37.509
-42.016
-46.627
-49.909
-49.49
-47.09
-44.454
-41.98
-40.736
-40.122
-39.362
-38.618
-37.8
-36.97
-36.296
-35.681
-35.05
-34.435
-33.849
-33.287
-32.755
-32.262
-31.814
-31.426
-31.117
-30.879
-30.704
-30.592
-30.54
-30.546
-30.606
-30.715
-30.868
-31.06
-31.288
-31.545
-31.82
-32.105
-32.392
-32.674
-32.945
-33.192
-33.407
-33.594
-33.763
-33.924
-34.077
-34.204
-34.29
-34.336
-34.332
-34.234
-33.977
-33.503
-32.79
-31.872
-30.79
-29.53
-28.139
-26.827
-25.771
-24.991
-24.432
-23.884
-23.705
-25.047
-28.367
-32.859
-35.634
-32.467
-21.611
-5.334
10.167
17.58
13.639
0.927
-13.704
-23.407
-25.642
-23.127
-20.739
-21.128
-22.548
-19.549
-7.673
11.945
32.025
42.118
34.783
11.012
-19.669
-44.246
-53.036
-44.667
-26.207
-7.992
2.382
2.732
-3.925
-12.479
-19.642
-24.429
-27.451
-30.067
-32.773
-35.42
-37.895
-40.028
-41.853
-43.538
-45.126
-46.635
-48.1
-49.515
-50.832
-51.982
-52.91
-53.627
-54.216
-54.796
-55.461
-56.234
-57.136
-58.268
-59.703
-61.483
-63.527
-65.508
-67.109
-68.169
-68.616
-68.37
-67.316
-65.463
-63.221
-61.376
-60.832
-61.529
-62.273
-62.559
-62.754
-65.322
-73.957
-88.333
-103.793
-111.885
-103.146
-74.703
-31.044
18.833
65.17
103.131
133.081
157.253
177.052
191.869
199.878
199.525
190.765
174.327
151.173
122.891
91.174
57.643
23.831
-9.043
-39.887
-67.295
-89.912
-107.103
-118.802
-125.349
-127.343
-125.392
-120.366
-113.664
-106.654
-100.195
-94.766
-90.469
-87.196
-84.89
-83.274
-81.706
-79.669
-76.936
-73.465
-69.482
-65.26
-60.96
-56.819
-53.165
-50.214
-48.083
-46.784
-46.185
-46.152
-46.588
-47.375
-48.398
-49.549
-50.705
-51.776
-52.707
-53.445
-53.96
-54.218
-54.181
-53.832
-53.174
-52.214
-50.979
-49.488
-47.756
-45.803
-43.651
-41.326
-38.866
-36.291
-33.614
-30.842
-27.975
-25.014
-21.964
-18.819
-15.569
-12.203
-8.715
-5.097
-1.355
2.513
6.512
10.643
14.908
19.304
23.821
28.444
33.163
37.965
42.829
47.733
52.651
57.547
62.41
67.242
72.023
76.73
81.364
85.9
90.325
94.654
98.838
102.776
106.434
109.788
112.723
115.17
117.192
118.712
119.744
120.701
121.03
120.074
118.682
116.9
116.601
120.887
127.564
134.075
136.587
128.746
112.95
94.961
79.788
74.878
79.276
86.413
92.127
91.414
83.899
74.015
63.968
55.358
48.744
42.524
36.092
29.626
23.063
16.641
10.472
4.378
-1.689
-7.672
-13.568
-19.382
-25.08
-30.626
-35.989
-41.118
-45.988
-50.604
-54.959
-59.04
-62.843
-66.361
-69.593
-72.542
-75.209
-77.595
-79.701
-81.533
-83.098
-84.404
-85.462
-86.28
-86.872
-87.249
-87.426
-87.416
-87.235
-86.897
-86.418
-85.815
-85.102
-84.297
-83.414
-82.469
-81.478
-80.454
-79.412
-78.366
-77.327
-76.307
-75.318
-74.369
-73.47
-72.628
-71.851
-71.145
-70.516
-69.966
-69.498
-69.115
-68.817
-68.603
-68.471
-68.421
-68.447
-68.547
-68.716
-68.947
-69.235
-69.571
-69.949
-70.36
-70.794
-71.242
-71.694
-72.14
-72.57
-72.974
-73.344
-73.669
-73.941
-74.151
-74.291
-74.354
-74.332
-74.219
-74.008
-73.695
-73.275
-72.745
-72.104
-71.351
-70.485
-69.508
-68.422
-67.23
-65.934
-64.539
-63.051
-61.475
-59.818
-58.088
-56.295
-54.451
-52.567
-50.659
-48.74
-46.825
-44.928
-43.066
-41.25
-39.494
-37.808
-36.202
-34.686
-33.272
-31.97
-30.791
-29.746
-28.844
-28.092
-27.497
-27.063
-26.793
-26.691
-26.752
-26.975
-27.361
-27.913
-28.644
-29.559
-30.654
-31.923
-33.357
-34.939
-36.655
-38.48
-40.372
-42.292
-44.199
-46.052
-47.832
-49.526
-51.109
-52.552
-53.812
-54.857
-55.694
-56.336
-56.785
-57.04
-57.085
-56.933
-56.674
-56.402
-56.205
-56.175
-56.332
-56.709
-57.418
-58.485
-59.863
-61.459
-63.004
-64.225
-64.993
-65.111
-64.391
-62.887
-60.75
-58.237
-55.821
-53.998
-53.298
-54.199
-56.979
-60.847
-63.716
-64.442
-62.509
-58.348
-54.711
-50.995
-43.195
-27.103
4.447
54.006
116.12
182.632
240.3
278.078
293.898
290.689
276.582
259.156
240.306
218.966
192.316
159.249
121.449
81.454
42.283
6.168
-25.283
-50.706
-69.686
-82.538
-89.824
-92.203
-90.405
-85.315
-78.377
-71.214
-64.827
-59.617
-55.632
-52.778
-50.984
-50.13
-49.701
-48.976
-47.579
-45.429
-42.671
-39.578
-36.317
-33.001
-29.864
-27.213
-25.228
-23.97
-23.371
-23.274
-23.559
-24.129
-24.879
-25.688
-26.426
-26.998
-27.339
-27.418
-27.221
-26.734
-25.939
-24.822
-23.391
-21.657
-19.647
-17.39
-14.904
-12.216
-9.355
-6.351
-3.247
-0.072
3.159
6.433
9.748
13.104
16.497
19.931
23.415
26.958
30.567
34.247
37.999
41.825
45.728
49.712
53.78
57.932
62.164
66.469
70.84
75.266
79.738
84.241
88.758
93.272
97.769
102.232
106.647
110.995
115.259
119.421
123.462
127.364
131.108
134.673
138.04
141.188
144.101
146.758
149.145
151.243
153.039
154.519
155.67
156.484
156.95
157.062
156.814
156.203
155.228
153.89
152.192
150.137
147.734
144.991
141.919
138.531
134.839
130.861
126.612
122.111
117.378
112.433
107.299
101.998
96.554
90.992
85.335
79.61
73.842
68.055
62.275
56.526
50.832
45.215
39.698
34.3
29.042
23.94
19.013
14.275
9.738
5.415
1.316
-2.551
-6.18
-9.566
-12.706
-15.597
-18.241
-20.637
-22.788
-24.699
-26.374
-27.82
-29.043
-30.052
-30.856
-31.465
-31.89
-32.142
-32.234
-32.177
-31.985
-31.669
-31.244
-30.721
-30.114
-29.433
-28.692
-27.902
-27.073
-26.216
-25.339
-24.453
-23.566
-22.684
-21.814
-20.963
-20.136
-19.337
-18.571
-17.842
-17.153
-16.507
-15.905
-15.351
-14.845
-14.388
-13.981
-13.622
-13.312
-13.05
-12.833
-12.659
-12.527
-12.432
-12.374
-12.347
-12.35
-12.377
-12.426
-12.491
-12.57
-12.657
-12.75
-12.844
-12.935
-13.019
-13.092
-13.152
-13.193
-13.213
-13.206
-13.168
-13.095
-12.982
-12.824
-12.615
-12.351
-12.028
-11.641
-11.187
-10.662
-10.064
-9.39
-8.638
-7.807
-6.894
-5.9
-4.823
-3.666
-2.428
-1.113
0.275
1.733
3.258
4.843
6.484
8.174
9.907
11.677
13.477
15.299
17.133
18.97
20.799
22.609
24.386
26.116
27.784
29.376
30.88
32.283
33.573
34.738
35.77
36.662
37.407
37.996
38.419
38.667
38.731
38.605
38.286
37.77
37.058
36.147
35.044
33.76
32.303
30.68
28.889
26.924
24.784
22.481
20.03
17.45
14.763
11.998
9.194
6.41
3.694
1.081
-1.406
-3.762
-5.978
-8.033
-9.896
-11.539
-12.941
-14.092
-14.984
-15.609
-15.976
-16.116
-16.093
-15.994
-15.897
-15.854
-15.902
-16.07
-16.361
-16.751
-17.237
-17.827
-18.48
-19.132
-19.621
-19.658
-19.054
-17.734
-15.599
-12.545
-8.492
-3.425
2.316
7.998
13.092
17.452
21.244
24.873
28.603
32.666
37.87
45.669
57.428
73.906
94.963
119.727
147.498
177.682
208.95
239.008
265.087
284.72
296.478
299.905
294.464
279.403
254.739
221.703
182.608
140.198
96.691
53.67
12.987
-22.88
-51.815
-72.688
-85.371
-90.566
-88.946
-80.907
-67.399
-50.392
-32.079
-14.285
1.565
14.78
24.793
30.758
32.373
30.249
25.407
19.003
12.23
5.726
-0.053
-4.363
-6.812
-7.487
-6.687
-5.007
-3.166
-1.48
-0.085
0.757
0.99
0.669
-0.136
-1.142
-2.01
-2.603
-2.858
-2.729
-2.255
-1.449
-0.297
1.138
2.789
4.627
6.619
8.761
11.06
13.493
16.041
18.693
21.433
24.26
27.182
30.198
33.315
36.542
39.881
43.334
46.903
50.583
54.372
58.267
62.267
66.369
70.571
74.87
79.261
83.737
88.285
92.894
97.547
102.225
106.91
111.587
116.236
120.839
125.378
129.831
134.179
138.4
142.473
146.375
150.082
153.571
156.819
159.807
162.512
164.915
166.999
168.745
170.138
171.165
171.812
172.069
171.925
171.375
170.411
169.031
167.235
165.022
162.397
159.365
155.933
152.112
147.913
143.351
138.442
133.203
127.655
121.819
115.718
109.378
102.824
96.083
89.185
82.158
75.031
67.835
60.599
53.353
46.126
38.947
31.844
24.844
17.973
11.256
4.718
-1.619
-7.736
-13.611
-19.228
-24.572
-29.627
-34.382
-38.827
-42.953
-46.754
-50.226
-53.366
-56.174
-58.65
-60.799
-62.624
-64.132
-65.333
-66.235
-66.849
-67.188
-67.264
-67.093
-66.689
-66.068
-65.246
-64.238
-63.063
-61.736
-60.275
-58.695
-57.014
-55.247
-53.411
-51.519
-49.587
-47.628
-45.656
-43.683
-41.721
-39.779
-37.869
-35.999
-34.177
-32.41
-30.703
-29.062
-27.491
-25.991
-24.565
-23.213
-21.934
-20.728
-19.591
-18.521
-17.515
-16.567
-15.672
-14.826
-14.023
-13.255
-12.516
-11.8
-11.1
-10.409
-9.719
-9.025
-8.32
-7.598
-6.852
-6.077
-5.27
-4.426
-3.537
-2.599
-1.607
-0.558
0.547
1.709
2.935
4.222
5.557
6.927
8.32
9.729
11.166
12.63
14.093
15.559
17.061
18.621
20.265
21.986
23.722
25.443
27.191
28.904
30.366
31.513
32.395
32.976
33.446
33.44
31.679
28.339
24.607
22.311
25.029
32.769
41.863
48.741
48.323
39.963
28.524
17.786
11.736
11.328
12.946
14.294
13.9
11.214
7.71
4.125
0.405
-3.377
-7.422
-11.789
-16.26
-20.754
-25.291
-29.848
-34.399
-38.936
-43.452
-47.948
-52.443
-56.934
-61.391
-65.793
-70.128
-74.383
-78.548
-82.612
-86.559
-90.379
-94.069
-97.626
-101.049
-104.338
-107.492
-110.514
-113.406
-116.174
-118.822
-121.355
-123.777
-126.092
-128.309
-130.437
-132.485
-134.466
-136.393
-138.275
-140.126
-141.956
-143.776
-145.594
-147.417
-149.252
-151.105
-152.986
-154.91
-156.891
-158.936
-161.049
-163.228
-165.459
-167.73
-170.018
-172.294
-174.527
-176.684
-178.73
-180.639
-182.391
-183.976
-185.379
-186.573
-187.535
-188.252
-188.725
-188.978
-189.048
-188.963
-188.763
-188.507
-188.249
-188.075
-188.083
-188.348
-188.932
-189.853
-191.084
-192.64
-194.551
-196.775
-199.214
-201.633
-203.669
-205.115
-205.897
-205.912
-205.077
-203.275
-200.322
-196.38
-191.992
-187.492
-182.994
-178.381
-173.173
-167.03
-159.941
-151.484
-140.681
-126.616
-108.404
-85.74
-59.29
-29.777
2.367
36.295
70.501
103.014
131.252
153.057
167.382
173.397
170.234
157.268
134.511
103.062
65.243
23.628
-19.682
-62.609
-102.936
-138.192
-166.216
-186.011
-197.745
-202.255
-200.491
-193.518
-182.753
-170.177
-157.806
-146.926
-138.107
-131.388
-126.631
-123.696
-122.22
-121.468
-120.606
-119.14
-116.954
-114.194
-111.093
-107.826
-104.568
-101.59
-99.212
-97.605
-96.766
-96.588
-96.895
-97.522
-98.361
-99.279
-100.115
-100.756
-101.123
-101.164
-100.883
-100.274
-99.32
-98.015
-96.364
-94.375
-92.08
-89.507
-86.677
-83.621
-80.37
-76.959
-73.43
-69.813
-66.125
-62.378
-58.574
-54.712
-50.796
-46.821
-42.777
-38.657
-34.452
-30.157
-25.77
-21.289
-16.706
-12.019
-7.22
-2.309
2.712
7.837
13.061
18.376
23.772
29.237
34.754
40.309
45.887
51.473
57.053
62.608
68.122
73.575
78.95
84.227
89.385
94.403
99.26
103.933
108.402
112.647
116.647
120.383
123.836
126.988
129.823
132.325
134.479
136.272
137.692
138.729
139.374
139.621
139.466
138.907
137.943
136.575
134.809
132.65
130.107
127.19
123.911
120.284
116.325
112.053
107.487
102.648
97.559
92.245
86.73
81.041
75.205
69.25
63.202
57.094
50.951
44.8
38.666
32.577
26.558
20.639
14.843
9.188
3.699
-1.591
-6.654
-11.46
-15.994
-20.259
-24.246
-27.925
-31.301
-34.407
-37.272
-39.927
-42.377
-44.569
-46.489
-48.197
-49.644
-50.629
-51.117
-51.178
-50.797
-50.202
-49.01
-45.956
-41.307
-36.26
-32.745
-34.413
-41.119
-49.215
-55.087
-53.595
-44.342
-32.239
-21.089
-14.971
-14.675
-16.561
-18.377
-18.611
-16.787
-14.4
-12.15
-9.993
-7.988
-5.92
-3.732
-1.631
0.318
2.146
3.847
5.41
6.842
8.153
9.361
10.502
11.59
12.611
13.564
14.453
15.283
16.059
16.784
17.457
18.082
18.666
19.212
19.726
20.212
20.672
21.111
21.531
21.936
22.328
22.708
23.08
23.442
23.798
24.146
24.487
24.82
25.146
25.462
25.768
26.061
26.341
26.604
26.847
27.068
27.264
27.431
27.566
27.665
27.725
27.743
27.717
27.642
27.516
27.337
27.102
26.809
26.457
26.044
25.569
25.033
24.436
23.779
23.063
22.291
21.466
20.589
19.665
18.697
17.69
16.649
15.58
14.487
13.38
12.264
11.149
10.043
8.953
7.89
6.861
5.877
4.944
4.073
3.269
2.543
1.9
1.35
0.898
0.551
0.315
0.195
0.195
0.318
0.566
0.941
1.441
2.066
2.814
3.683
4.669
5.768
6.974
8.28
9.68
11.164
12.721
14.338
15.998
17.688
19.392
21.093
22.775
24.421
26.015
27.543
28.994
30.355
31.61
32.746
33.747
34.599
35.29
35.807
36.138
36.274
36.206
35.932
35.45
34.759
33.856
32.735
31.387
29.804
27.99
25.949
23.69
21.23
18.586
15.789
12.877
9.89
6.866
3.835
0.827
-2.133
-5.025
-7.821
-10.484
-12.986
-15.309
-17.453
-19.429
-21.248
-22.917
-24.452
-25.897
-27.318
-28.794
-30.393
-32.171
-34.148
-36.346
-38.84
-41.648
-44.711
-47.901
-50.933
-53.526
-55.53
-56.759
-56.969
-56.129
-54.294
-51.701
-49.002
-46.721
-45.148
-44.714
-45.653
-47.671
-50.258
-52.413
-52.522
-49.34
-41.787
-28.512
-8.641
17.934
50.742
88.318
128.454
169.267
208.663
243.973
272.739
292.966
303.352
303.656
294.24
275.303
247.581
212.747
172.923
130.48
87.524
45.69
6.586
-27.818
-55.861
-76.807
-90.672
-98.055
-99.667
-96.243
-88.884
-79.283
-69.235
-59.912
-51.891
-45.333
-40.264
-36.696
-34.427
-32.83
-31.094
-28.776
-25.802
-22.305
-18.522
-14.603
-10.677
-7.017
-3.982
-1.77
-0.412
0.186
0.212
-0.189
-0.924
-1.875
-2.892
-3.825
-4.557
-5.021
-5.199
-5.086
-4.662
-3.902
-2.794
-1.349
0.403
2.427
4.692
7.175
9.851
12.687
15.641
18.67
21.742
24.843
27.963
31.102
34.258
37.43
40.621
43.847
47.122
50.455
53.856
57.325
60.871
64.5
68.22
72.039
75.958
79.975
84.087
88.29
92.577
96.94
101.366
105.841
110.352
114.885
119.428
123.964
128.48
132.959
137.384
141.737
146.002
150.157
154.184
158.06
161.765
165.278
168.58
171.65
174.467
177.013
179.27
181.22
182.848
184.137
185.075
185.648
185.846
185.662
185.087
184.117
182.75
180.985
178.824
176.271
173.331
170.011
166.322
162.274
157.881
153.157
148.119
142.785
137.175
131.309
125.211
118.904
112.413
105.763
98.981
92.094
85.127
78.109
71.066
64.024
57.01
50.05
43.169
36.389
29.736
23.229
16.89
10.737
4.786
-0.946
-6.447
-11.705
-16.709
-21.451
-25.925
-30.126
-34.049
-37.694
-41.059
-44.148
-46.961
-49.505
-51.784
-53.805
-55.578
-57.109
-58.411
-59.492
-60.366
-61.044
-61.538
-61.863
-62.03
-62.054
-61.949
-61.727
-61.402
-60.988
-60.496
-59.938
-59.327
-58.671
-57.982
-57.268
-56.538
-55.8
-55.061
-54.328
-53.606
-52.9
-52.215
-51.554
-50.92
-50.316
-49.743
-49.202
-48.694
-48.22
-47.779
-47.372
-46.996
-46.652
-46.338
-46.052
-45.793
-45.559
-45.347
-45.157
-44.985
-44.83
-44.691
-44.566
-44.454
-44.354
-44.265
-44.187
-44.118
-44.06
-44.011
-43.972
-43.943
-43.925
-43.917
-43.922
-43.938
-43.967
-44.01
-44.066
-44.138
-44.224
-44.326
-44.443
-44.576
-44.725
-44.889
-45.067
-45.26
-45.465
-45.682
-45.909
-46.144
-46.386
-46.631
-46.877
-47.121
-47.36
-47.59
-47.807
-48.007
-48.185
-48.336
-48.455
-48.536
-48.577
-48.57
-48.511
-48.396
-48.22
-47.98
-47.67
-47.288
-46.829
-46.29
-45.669
-44.963
-44.171
-43.291
-42.322
-41.266
-40.123
-38.895
-37.585
-36.196
-34.732
-33.197
-31.595
-29.935
-28.221
-26.462
-24.666
-22.843
-21.005
-19.165
-17.337
-15.533
-13.766
-12.051
-10.4
-8.825
-7.337
-5.945
-4.659
-3.488
-2.446
-1.542
-0.787
-0.192
0.235
0.486
0.553
0.43
0.117
-0.386
-1.08
-1.966
-3.048
-4.336
-5.834
-7.541
-9.448
-11.546
-13.819
-16.249
-18.807
-21.458
-24.162
-26.883
-29.587
-32.245
-34.834
-37.335
-39.718
-41.95
-44.004
-45.862
-47.531
-49.026
-50.359
-51.537
-52.571
-53.51
-54.43
-55.416
-56.555
-57.913
-59.514
-61.39
-63.62
-66.204
-69.076
-72.087
-74.93
-77.345
-79.198
-80.307
-80.519
-79.87
-78.473
-76.621
-74.909
-73.73
-73.331
-74.061
-75.911
-78.382
-80.729
-81.8
-80.201
-74.895
-64.882
-48.953
-26.542
2.006
35.66
72.639
110.94
148.79
184.126
214.315
237.047
250.989
255.656
251.288
238.345
217.177
188.647
154.666
117.531
79.03
40.561
3.322
-31.426
-61.976
-86.87
-105.752
-118.946
-126.749
-129.518
-127.744
-122.217
-114.464
-106.147
-98.176
-90.935
-84.67
-79.502
-75.537
-72.723
-70.491
-68.081
-65.147
-61.665
-57.763
-53.664
-49.489
-45.32
-41.412
-38.102
-35.572
-33.853
-32.851
-32.383
-32.32
-32.578
-33.052
-33.605
-34.094
-34.403
-34.465
-34.261
-33.785
-33.017
-31.936
-30.528
-28.807
-26.804
-24.558
-22.102
-19.462
-16.665
-13.739
-10.719
-7.646
-4.546
-1.429
1.7
4.848
8.017
11.209
14.426
17.684
20.999
24.39
27.878
31.472
35.177
38.999
42.944
47.011
51.191
55.46
59.781
64.117
68.443
72.746
77.025
81.274
85.485
89.653
93.771
97.851
101.909
105.954
109.986
114.01
118.041
122.122
126.323
130.698
135.267
140.022
144.926
149.948
155.041
160.147
165.185
170.043
174.616
178.824
182.61
185.912
188.655
190.727
191.992
192.342
191.714
190.08
187.439
183.792
179.168
173.63
167.281
160.267
152.708
144.696
136.301
127.591
118.655
109.61
100.585
91.682
82.977
74.53
66.388
58.599
51.188
44.145
37.426
30.962
24.707
18.644
12.77
7.085
1.577
-3.772
-8.983
-14.058
-18.992
-23.787
-28.44
-32.958
-37.333
-41.541
-45.545
-49.3
-52.779
-55.968
-58.861
-61.455
-63.749
-65.745
-67.45
-68.884
-70.062
-70.996
-71.698
-72.175
-72.442
-72.518
-72.424
-72.182
-71.81
-71.326
-70.745
-70.085
-69.358
-68.578
-67.752
-66.889
-65.995
-65.082
-64.157
-63.231
-62.311
-61.404
-60.519
-59.662
-58.839
-58.054
-57.31
-56.608
-55.951
-55.339
-54.772
-54.25
-53.772
-53.337
-52.944
-52.591
-52.276
-51.998
-51.754
-51.543
-51.362
-51.209
-51.082
-50.98
-50.9
-50.842
-50.804
-50.785
-50.786
-50.805
-50.842
-50.896
-50.967
-51.055
-51.158
-51.276
-51.408
-51.555
-51.716
-51.891
-52.082
-52.286
-52.506
-52.74
-52.988
-53.249
-53.52
-53.802
-54.09
-54.383
-54.678
-54.971
-55.26
-55.54
-55.808
-56.059
-56.287
-56.488
-56.655
-56.782
-56.862
-56.887
-56.851
-56.747
-56.57
-56.311
-55.967
-55.531
-54.998
-54.363
-53.621
-52.767
-51.798
-50.71
-49.501
-48.169
-46.714
-45.137
-43.441
-41.629
-39.705
-37.674
-35.543
-33.318
-31.007
-28.618
-26.16
-23.645
-21.084
-18.491
-15.881
-13.27
-10.676
-8.116
-5.61
-3.174
-0.826
1.418
3.543
5.535
7.382
9.07
10.586
11.917
13.048
13.966
14.661
15.123
15.344
15.321
15.048
14.525
13.758
12.751
11.505
10.018
8.284
6.3
4.076
1.621
-1.049
-3.914
-6.955
-10.138
-13.415
-16.739
-20.061
-23.346
-26.577
-29.739
-32.804
-35.743
-38.511
-41.078
-43.448
-45.617
-47.572
-49.301
-50.779
-52.033
-53.149
-54.217
-55.328
-56.552
-57.891
-59.377
-61.084
-62.999
-65.081
-67.225
-69.159
-70.685
-71.7
-72.023
-71.549
-70.344
-68.461
-66.11
-63.771
-61.766
-60.405
-60.157
-61.084
-62.766
-64.617
-65.79
-65.11
-61.505
-53.883
-40.741
-21.755
1.721
29.097
60.05
94.828
135.406
179.481
220.622
252.685
268.655
267.133
252.902
229.733
202.198
172.521
139.12
102.241
62.771
22.179
-15.999
-48.808
-74.779
-93.27
-104.722
-110.117
-110.325
-106.278
-99.438
-91.722
-84.528
-78.636
-74.384
-71.582
-69.977
-69.408
-69.377
-69.048
-67.919
-65.815
-62.743
-59.033
-54.993
-50.788
-46.68
-43.012
-39.982
-37.679
-36.125
-35.201
-34.76
-34.689
-34.946
-35.519
-36.235
-36.969
-37.655
-38.016
-38.61
-40.002
-41.323
-42.284
-41.318
-36.568
-30.115
-23.364
-18.395
-18.045
-19.843
-21.701
-22.197
-18.98
-13.788
-8.371
-3.126
0.887
4.28
7.84
11.424
15.146
18.965
22.732
26.56
30.535
34.635
38.859
43.224
47.732
52.379
57.159
62.051
67.033
72.102
77.257
82.48
87.757
93.071
98.404
103.744
109.075
114.377
119.63
124.813
129.905
134.886
139.733
144.422
148.929
153.232
157.308
161.135
164.691
167.955
170.908
173.529
175.803
177.713
179.243
180.381
181.116
181.438
181.34
180.817
179.866
178.486
176.677
174.444
171.79
168.725
165.256
161.396
157.159
152.559
147.615
142.346
136.773
130.918
124.807
118.464
111.916
105.189
98.313
91.316
84.225
77.071
69.882
62.685
55.509
48.381
41.326
34.369
27.535
20.846
14.323
7.985
1.85
-4.065
-9.745
-15.178
-20.352
-25.258
-29.888
-34.236
-38.299
-42.074
-45.561
-48.761
-51.677
-54.314
-56.678
-58.775
-60.616
-62.21
-63.567
-64.7
-65.621
-66.343
-66.88
-67.245
-67.453
-67.517
-67.452
-67.269
-66.984
-66.608
-66.153
-65.631
-65.054
-64.431
-63.773
-63.089
-62.387
-61.675
-60.96
-60.248
-59.545
-58.856
-58.184
-57.533
-56.905
-56.303
-55.729
-55.181
-54.662
-54.17
-53.705
-53.265
-52.849
-52.455
-52.083
-51.729
-51.393
-51.072
-50.766
-50.474
-50.194
-49.927
-49.671
-49.428
-49.198
-48.981
-48.778
-48.591
-48.421
-48.268
-48.134
-48.021
-47.929
-47.859
-47.814
-47.793
-47.798
-47.829
-47.888
-47.974
-48.088
-48.229
-48.396
-48.589
-48.807
-49.047
-49.308
-49.587
-49.88
-50.185
-50.497
-50.812
-51.123
-51.424
-51.708
-51.969
-52.198
-52.387
-52.527
-52.611
-52.629
-52.575
-52.441
-52.219
-51.903
-51.486
-50.962
-50.325
-49.571
-48.695
-47.694
-46.566
-45.308
-43.922
-42.409
-40.771
-39.011
-37.133
-35.142
-33.045
-30.848
-28.56
-26.19
-23.747
-21.245
-18.696
-16.115
-13.52
-10.927
-8.356
-5.825
-3.353
-0.959
1.342
3.531
5.594
7.518
9.289
10.894
12.32
13.551
14.573
15.373
15.941
16.268
16.348
16.174
15.747
15.07
14.148
12.986
11.584
9.935
8.033
5.886
3.502
0.9
-1.897
-4.867
-7.975
-11.169
-14.401
-17.617
-20.781
-23.879
-26.9
-29.825
-32.633
-35.28
-37.736
-39.994
-42.053
-43.91
-45.569
-47.031
-48.329
-49.538
-50.747
-52.045
-53.495
-55.12
-56.932
-58.933
-61.128
-63.554
-66.186
-68.91
-71.553
-73.866
-75.613
-76.638
-76.793
-75.892
-73.844
-70.687
-66.683
-62.409
-58.473
-55.356
-53.234
-51.933
-51.085
-50.2
-48.348
-44.223
-36.397
-23.228
-4.575
18.803
46.937
78.868
114.799
154.691
193.766
227.607
251.545
261.043
258.045
244.56
221.951
193.363
158.703
118.675
75.658
31.04
-12.492
-52.076
-85.516
-111.145
-128.572
-138.294
-141.218
-138.448
-131.095
-120.713
-109.399
-98.659
-89.313
-81.784
-75.943
-71.591
-68.622
-66.499
-64.339
-61.66
-58.292
-54.247
-49.835
-45.286
-40.708
-36.385
-32.685
-29.805
-27.818
-26.668
-26.166
-26.169
-26.57
-27.228
-27.989
-28.699
-29.23
-29.519
-29.54
-29.278
-28.721
-27.846
-26.643
-25.125
-23.319
-21.251
-18.949
-16.43
-13.72
-10.852
-7.861
-4.789
-1.664
1.502
4.702
7.937
11.209
14.519
17.877
21.298
24.797
28.386
32.073
35.863
39.762
43.779
47.921
52.195
56.603
61.144
65.813
70.606
75.515
80.531
85.638
90.823
96.068
101.358
106.678
112.009
117.333
122.629
127.876
133.053
138.136
143.103
147.927
152.584
157.049
161.298
165.307
169.052
172.511
175.662
178.485
180.958
183.066
184.79
186.116
187.029
187.519
187.577
187.195
186.369
185.095
183.374
181.207
178.6
175.558
172.09
168.207
163.922
159.252
154.214
148.827
143.113
137.095
130.798
124.249
117.475
110.505
103.368
96.093
88.712
81.254
73.75
66.231
58.726
51.264
43.874
36.583
29.418
22.404
15.564
8.92
2.492
-3.701
-9.642
-15.317
-20.714
-25.82
-30.627
-35.129
-39.32
-43.197
-46.76
-50.008
-52.946
-55.577
-57.908
-59.946
-61.699
-63.179
-64.396
-65.364
-66.094
-66.602
-66.902
-67.009
-66.939
-66.707
-66.331
-65.825
-65.205
-64.487
-63.685
-62.813
-61.886
-60.916
-59.915
-58.895
-57.867
-56.841
-55.825
-54.827
-53.856
-52.917
-52.017
-51.159
-50.348
-49.586
-48.877
-48.222
-47.622
-47.077
-46.589
-46.155
-45.775
-45.449
-45.174
-44.947
-44.768
-44.632
-44.539
-44.484
-44.465
-44.48
-44.526
-44.6
-44.701
-44.826
-44.975
-45.144
-45.334
-45.543
-45.769
-46.012
-46.271
-46.544
-46.832
-47.132
-47.445
-47.77
-48.105
-48.449
-48.802
-49.162
-49.528
-49.897
-50.268
-50.637
-51.003
-51.362
-51.711
-52.048
-52.369
-52.67
-52.948
-53.199
-53.419
-53.602
-53.743
-53.838
-53.88
-53.864
-53.783
-53.633
-53.407
-53.1
-52.708
-52.226
-51.649
-50.973
-50.195
-49.312
-48.321
-47.219
-46.006
-44.679
-43.24
-41.691
-40.034
-38.271
-36.409
-34.451
-32.404
-30.275
-28.069
-25.797
-23.466
-21.085
-18.665
-16.218
-13.757
-11.297
-8.853
-6.442
-4.078
-1.78
0.438
2.56
4.572
6.461
8.218
9.828
11.282
12.566
13.669
14.578
15.283
15.774
16.044
16.087
15.899
15.477
14.826
13.947
12.843
11.513
9.95
8.153
6.125
3.878
1.425
-1.215
-4.021
-6.968
-10.013
-13.115
-16.232
-19.323
-22.367
-25.346
-28.237
-31.011
-33.631
-36.061
-38.297
-40.351
-42.225
-43.922
-45.44
-46.781
-48.012
-49.218
-50.473
-51.855
-53.401
-55.109
-57.026
-59.23
-61.716
-64.425
-67.185
-69.706
-71.82
-73.44
-74.393
-74.515
-73.746
-72.114
-69.923
-67.674
-65.616
-63.938
-62.924
-62.638
-62.878
-63.158
-62.475
-59.756
-54.366
-45.416
-31.73
-12.688
12.047
41.506
73.099
105.613
138.717
172.312
207.397
241.224
268.092
283.024
280.468
259.948
226.268
184.279
140.1
96.828
53.784
11.382
-29.771
-67.603
-98.498
-120.856
-134.603
-140.332
-139.537
-133.509
-123.409
-111.171
-98.786
-87.482
-77.951
-70.367
-64.555
-60.41
-57.7
-55.745
-53.75
-51.258
-48.146
-44.546
-40.716
-36.83
-33.023
-29.558
-26.768
-24.835
-23.77
-23.469
-23.741
-24.411
-25.368
-26.472
-27.546
-28.463
-29.128
-29.48
-29.521
-29.248
-28.639
-27.688
-26.396
-24.77
-22.844
-20.647
-18.202
-15.541
-12.7
-9.714
-6.631
-3.481
-0.282
2.958
6.237
9.56
12.927
16.346
19.829
23.388
27.032
30.769
34.603
38.54
42.589
46.755
51.048
55.471
60.022
64.698
69.494
74.402
79.413
84.515
89.69
94.925
100.205
105.514
110.837
116.156
121.452
126.706
131.897
137.005
142.007
146.88
151.6
156.143
160.486
164.606
168.48
172.087
175.404
178.411
181.089
183.42
185.387
186.973
188.163
188.946
189.311
189.249
188.754
187.819
186.445
184.63
182.377
179.69
176.577
173.047
169.111
164.782
160.076
155.011
149.606
143.884
137.866
131.579
125.048
118.3
111.365
104.27
97.045
89.72
82.326
74.891
67.446
60.02
52.641
45.338
38.139
31.068
24.152
17.413
10.874
4.555
-1.526
-7.352
-12.909
-18.183
-23.166
-27.847
-32.221
-36.283
-40.031
-43.465
-46.586
-49.398
-51.906
-54.118
-56.041
-57.685
-59.062
-60.183
-61.061
-61.711
-62.146
-62.381
-62.433
-62.316
-62.048
-61.644
-61.12
-60.492
-59.776
-58.987
-58.139
-57.246
-56.321
-55.377
-54.425
-53.475
-52.537
-51.621
-50.732
-49.879
-49.065
-48.297
-47.577
-46.908
-46.291
-45.728
-45.219
-44.763
-44.361
-44.009
-43.708
-43.454
-43.246
-43.081
-42.956
-42.868
-42.814
-42.792
-42.797
-42.827
-42.88
-42.952
-43.042
-43.146
-43.263
-43.392
-43.531
-43.679
-43.834
-43.997
-44.166
-44.341
-44.523
-44.712
-44.907
-45.111
-45.322
-45.542
-45.771
-46.009
-46.256
-46.511
-46.774
-47.042
-47.315
-47.591
-47.867
-48.14
-48.409
-48.67
-48.919
-49.152
-49.365
-49.554
-49.711
-49.833
-49.912
-49.943
-49.92
-49.835
-49.684
-49.459
-49.157
-48.77
-48.294
-47.724
-47.053
-46.278
-45.394
-44.398
-43.286
-42.056
-40.707
-39.239
-37.655
-35.956
-34.146
-32.228
-30.208
-28.092
-25.887
-23.6
-21.24
-18.817
-16.341
-13.825
-11.283
-8.731
-6.185
-3.662
-1.177
1.251
3.607
5.875
8.041
10.09
12.012
13.793
15.421
16.882
18.16
19.242
20.116
20.772
21.2
21.394
21.345
21.049
20.511
19.731
18.713
17.454
15.943
14.178
12.167
9.924
7.465
4.81
1.975
-1.009
-4.096
-7.238
-10.382
-13.49
-16.549
-19.543
-22.452
-25.248
-27.889
-30.35
-32.639
-34.768
-36.736
-38.54
-40.163
-41.615
-42.962
-44.304
-45.738
-47.341
-49.146
-51.139
-53.335
-55.782
-58.461
-61.29
-64.097
-66.581
-68.513
-69.856
-70.576
-70.616
-70.039
-68.824
-67.004
-65.003
-63.198
-61.669
-60.471
-59.387
-57.728
-55.029
-50.946
-44.637
-35.324
-22.432
-5.216
16.427
41.578
69.279
98.617
128.216
156.758
182.851
204.417
219.761
228.32
229.892
224.428
212.239
193.505
168.534
138.768
106.085
71.775
36.941
2.704
-29.909
-59.411
-84
-102.924
-116.286
-124.126
-126.651
-124.343
-117.742
-108.074
-97.24
-86.477
-76.385
-67.497
-60.058
-54.142
-49.869
-46.876
-44.319
-41.742
-38.985
-35.967
-32.86
-29.806
-26.831
-24.144
-22.062
-20.705
-20.092
-20.147
-20.642
-21.415
-22.344
-23.254
-24.008
-24.51
-24.68
-24.498
-23.977
-23.109
-21.894
-20.342
-18.459
-16.272
-13.815
-11.113
-8.205
-5.135
-1.946
1.312
4.607
7.923
11.248
14.583
17.93
21.291
24.674
28.094
31.558
35.075
38.652
42.292
46.002
49.792
53.67
57.644
61.719
65.895
70.17
74.54
78.999
83.54
88.152
92.822
97.538
102.289
107.063
111.846
116.625
121.382
126.102
130.768
135.36
139.858
144.24
148.485
152.571
156.476
160.178
163.655
166.885
169.849
172.527
174.898
176.945
178.652
180.001
180.979
181.572
181.77
181.564
180.945
179.909
178.452
176.572
174.271
171.552
168.418
164.878
160.94
156.617
151.921
146.868
141.476
135.765
129.755
123.47
116.935
110.176
103.219
96.093
88.825
81.445
73.983
66.467
58.926
51.389
43.885
36.442
29.085
21.841
14.735
7.789
1.026
-5.533
-11.871
-17.969
-23.813
-29.389
-34.685
-39.691
-44.399
-48.805
-52.902
-56.691
-60.169
-63.341
-66.208
-68.776
-71.052
-73.044
-74.762
-76.216
-77.419
-78.383
-79.121
-79.649
-79.981
-80.131
-80.115
-79.949
-79.648
-79.228
-78.702
-78.087
-77.396
-76.642
-75.841
-75.003
-74.141
-73.267
-72.391
-71.524
-70.674
-69.851
-69.06
-68.31
-67.606
-66.953
-66.355
-65.815
-65.337
-64.923
-64.573
-64.289
-64.07
-63.917
-63.828
-63.803
-63.839
-63.935
-64.09
-64.3
-64.564
-64.88
-65.245
-65.658
-66.115
-66.614
-67.152
-67.728
-68.338
-68.979
-69.648
-70.342
-71.058
-71.793
-72.543
-73.306
-74.076
-74.851
-75.626
-76.397
-77.159
-77.908
-78.639
-79.348
-80.03
-80.68
-81.292
-81.862
-82.385
-82.855
-83.266
-83.612
-83.887
-84.084
-84.198
-84.221
-84.149
-83.975
-83.694
-83.302
-82.794
-82.168
-81.418
-80.543
-79.54
-78.408
-77.146
-75.753
-74.23
-72.581
-70.807
-68.915
-66.908
-64.793
-62.577
-60.268
-57.875
-55.405
-52.87
-50.281
-47.648
-44.984
-42.305
-39.625
-36.962
-34.332
-31.754
-29.244
-26.821
-24.5
-22.299
-20.231
-18.307
-16.541
-14.944
-13.528
-12.307
-11.293
-10.5
-9.937
-9.615
-9.54
-9.718
-10.15
-10.832
-11.761
-12.932
-14.342
-15.997
-17.898
-20.04
-22.42
-25.022
-27.825
-30.805
-33.931
-37.159
-40.445
-43.746
-47.02
-50.245
-53.405
-56.483
-59.462
-62.31
-64.998
-67.508
-69.834
-71.974
-73.944
-75.752
-77.425
-79.019
-80.585
-82.188
-83.895
-85.74
-87.742
-89.914
-92.251
-94.762
-97.494
-100.409
-103.376
-106.203
-108.59
-110.272
-111.084
-110.864
-109.418
-106.715
-102.932
-98.464
-94.042
-90.378
-87.841
-86.51
-86.243
-86.549
-86.64
-85.483
-81.511
-73.062
-59.003
-38.833
-12.744
18.341
53.065
89.775
126.05
159.028
186.115
205.139
214.698
214.234
203.562
182.885
153.448
117.314
76.831
34.612
-7.007
-46.054
-80.398
-108.144
-128.402
-141.083
-146.646
-146.136
-140.668
-131.462
-120.331
-109.126
-99.042
-90.771
-84.546
-80.221
-77.661
-76.601
-76.337
-76.06
-75.27
-73.757
-71.599
-69.025
-66.194
-63.247
-60.439
-58.087
-56.381
-55.36
-54.941
-54.959
-55.263
-55.751
-56.318
-56.826
-57.18
-57.319
-57.195
-56.808
-56.162
-55.239
-54.037
-52.559
-50.805
-48.796
-46.561
-44.123
-41.511
-38.757
-35.888
-32.94
-29.937
-26.891
-23.81
-20.695
-17.539
-14.342
-11.098
-7.796
-4.427
-0.984
2.544
6.161
9.875
13.695
17.629
21.685
25.87
30.185
34.628
39.197
43.887
48.69
53.599
58.599
63.68
68.829
74.032
79.276
84.546
89.824
95.091
100.328
105.517
110.634
115.657
120.564
125.329
129.931
134.346
138.551
142.525
146.244
149.689
152.838
155.672
158.175
160.327
162.116
163.525
164.545
165.164
165.376
165.174
164.555
163.517
162.061
160.19
157.911
155.229
152.155
148.7
144.88
140.71
136.209
131.395
126.292
120.921
115.309
109.481
103.462
97.282
90.967
84.547
78.049
71.501
64.933
58.37
51.841
45.37
38.985
32.707
26.561
20.568
14.748
9.119
3.698
-1.5
-6.461
-11.174
-15.629
-19.819
-23.738
-27.382
-30.749
-33.84
-36.655
-39.197
-41.472
-43.486
-45.246
-46.761
-48.042
-49.099
-49.943
-50.588
-51.046
-51.331
-51.455
-51.434
-51.279
-51.006
-50.628
-50.157
-49.607
-48.99
-48.319
-47.604
-46.857
-46.088
-45.307
-44.523
-43.743
-42.974
-42.224
-41.499
-40.802
-40.138
-39.51
-38.922
-38.375
-37.87
-37.409
-36.991
-36.616
-36.284
-35.993
-35.743
-35.531
-35.355
-35.214
-35.106
-35.028
-34.979
-34.955
-34.955
-34.975
-35.014
-35.068
-35.134
-35.211
-35.293
-35.38
-35.467
-35.551
-35.63
-35.701
-35.759
-35.802
-35.827
-35.831
-35.81
-35.761
-35.68
-35.563
-35.408
-35.209
-34.963
-34.665
-34.313
-33.902
-33.428
-32.888
-32.277
-31.594
-30.834
-29.994
-29.073
-28.067
-26.974
-25.793
-24.523
-23.164
-21.717
-20.183
-18.565
-16.864
-15.085
-13.232
-11.31
-9.324
-7.28
-5.186
-3.049
-0.878
1.318
3.528
5.74
7.94
10.116
12.253
14.337
16.354
18.292
20.136
21.875
23.5
25.001
26.368
27.59
28.655
29.55
30.264
30.786
31.109
31.225
31.129
30.818
30.297
29.57
28.642
27.511
26.171
24.616
22.85
20.878
18.713
16.375
13.884
11.271
8.58
5.852
3.134
0.456
-2.172
-4.742
-7.243
-9.664
-11.968
-14.127
-16.151
-18.046
-19.823
-21.504
-23.077
-24.562
-26.028
-27.518
-29.047
-30.604
-32.141
-33.63
-35.127
-36.689
-38.351
-40.244
-42.531
-45.228
-48.153
-50.986
-53.193
-54.855
-56.921
-59.618
-62.162
-61.868
-54.251
-37.266
-13.647
8.974
20.158
12.942
-11.094
-41.843
-65.157
-69.742
-52.563
-19.307
20.195
58.164
91.725
122.439
153.428
185.182
215.334
240.438
257.121
263.671
259.596
244.646
219.372
185.318
144.864
100.897
56.191
13.073
-26.158
-59.017
-83.819
-99.983
-107.832
-108.547
-103.565
-94.231
-82.321
-70.041
-58.968
-50.004
-43.54
-39.309
-36.928
-36.099
-36.117
-36.022
-35.245
-33.519
-30.838
-27.521
-23.829
-19.933
-16.153
-12.848
-10.227
-8.38
-7.259
-6.697
-6.566
-6.757
-7.147
-7.612
-8.022
-8.284
-8.342
-8.17
-7.754
-7.079
-6.123
-4.874
-3.338
-1.526
0.537
2.83
5.34
8.043
10.912
13.918
17.023
20.2
23.437
26.722
30.054
33.432
36.854
40.322
43.851
47.447
51.121
54.877
58.718
62.645
66.665
70.782
75
79.322
83.742
88.257
92.86
97.542
102.293
107.098
111.942
116.807
121.678
126.538
131.37
136.156
140.876
145.511
150.041
154.445
158.704
162.793
166.693
170.381
173.838
177.044
179.979
182.625
184.966
186.985
188.669
190.004
190.979
191.584
191.81
191.651
191.103
190.163
188.831
187.108
185
182.511
179.65
176.428
172.857
168.952
164.727
160.202
155.396
150.33
145.026
139.508
133.8
127.928
121.919
115.798
109.594
103.332
97.039
90.743
84.469
78.241
72.085
66.024
60.08
54.274
48.627
43.156
37.879
32.812
27.968
23.36
18.998
14.89
11.043
7.461
4.148
1.105
-1.669
-4.176
-6.421
-8.408
-10.145
-11.641
-12.905
-13.947
-14.78
-15.416
-15.869
-16.153
-16.282
-16.271
-16.135
-15.888
-15.546
-15.122
-14.633
-14.092
-13.512
-12.908
-12.292
-11.677
-11.074
-10.493
-9.946
-9.442
-8.988
-8.593
-8.263
-8.004
-7.82
-7.716
-7.694
-7.757
-7.905
-8.139
-8.458
-8.861
-9.346
-9.91
-10.55
-11.262
-12.041
-12.882
-13.781
-14.732
-15.73
-16.768
-17.841
-18.941
-20.063
-21.201
-22.347
-23.495
-24.64
-25.773
-26.89
-27.984
-29.05
-30.08
-31.071
-32.016
-32.909
-33.746
-34.523
-35.235
-35.878
-36.45
-36.946
-37.366
-37.707
-37.968
-38.147
-38.244
-38.259
-38.191
-38.041
-37.811
-37.5
-37.111
-36.646
-36.109
-35.502
-34.83
-34.097
-33.307
-32.465
-31.577
-30.649
-29.688
-28.698
-27.689
-26.669
-25.648
-24.636
-23.644
-22.681
-21.758
-20.885
-20.071
-19.326
-18.654
-18.062
-17.557
-17.145
-16.835
-16.636
-16.555
-16.6
-16.778
-17.096
-17.558
-18.166
-18.918
-19.813
-20.851
-22.035
-23.372
-24.867
-26.518
-28.326
-30.284
-32.379
-34.594
-36.904
-39.271
-41.671
-44.076
-46.464
-48.819
-51.119
-53.342
-55.479
-57.505
-59.399
-61.151
-62.742
-64.169
-65.473
-66.681
-67.835
-68.99
-70.161
-71.381
-72.712
-74.192
-75.881
-77.823
-79.994
-82.427
-85.197
-88.276
-91.601
-94.973
-97.981
-100.315
-101.781
-102.129
-101.235
-99.147
-95.983
-92.264
-88.835
-86.366
-85.397
-86.251
-88.755
-92.376
-96.279
-99.041
-98.957
-94.43
-83.906
-66.356
-41.585
-10.108
26.831
67.306
109.024
149.367
185.395
214.462
234.517
244.242
243.092
231.022
208.499
176.865
138.282
95.246
50.408
6.189
-35.243
-71.607
-100.952
-122.32
-135.649
-141.512
-141.052
-135.525
-126.328
-115.406
-104.685
-95.376
-88.121
-83.07
-79.949
-78.474
-78.276
-78.569
-78.525
-77.707
-75.949
-73.378
-70.303
-66.937
-63.475
-60.229
-57.518
-55.522
-54.303
-53.777
-53.787
-54.217
-54.954
-55.888
-56.899
-57.853
-58.661
-59.261
-59.619
-59.718
-59.54
-59.06
-58.265
-57.158
-55.75
-54.068
-52.134
-49.966
-47.586
-45.02
-42.299
-39.461
-36.532
-33.523
-30.441
-27.285
-24.054
-20.75
-17.37
-13.901
-10.334
-6.665
-2.889
0.996
4.995
9.126
13.398
17.813
22.365
27.035
31.796
36.626
41.499
46.375
51.227
56.029
60.77
65.459
70.105
74.703
79.239
83.683
88.003
92.195
96.253
100.175
103.98
107.677
111.286
114.853
118.402
121.921
125.378
128.695
131.781
134.575
137.032
139.12
140.82
142.093
142.897
143.206
142.973
142.153
140.69
138.49
135.492
131.687
127.101
121.814
115.939
109.558
102.739
95.553
88.049
80.29
72.34
64.239
56.04
47.805
39.616
31.583
23.805
16.332
9.19
2.367
-4.179
-10.467
-16.506
-22.318
-27.905
-33.269
-38.41
-43.308
-47.942
-52.308
-56.413
-60.284
-63.948
-67.412
-70.671
-73.711
-76.507
-79.043
-81.308
-83.286
-84.971
-86.364
-87.471
-88.312
-88.912
-89.288
-89.456
-89.427
-89.211
-88.822
-88.278
-87.596
-86.796
-85.896
-84.917
-83.878
-82.801
-81.7
-80.591
-79.483
-78.386
-77.308
-76.257
-75.242
-74.269
-73.346
-72.479
-71.675
-70.938
-70.273
-69.682
-69.169
-68.732
-68.371
-68.085
-67.872
-67.728
-67.65
-67.633
-67.672
-67.763
-67.899
-68.074
-68.282
-68.516
-68.769
-69.035
-69.305
-69.573
-69.831
-70.072
-70.289
-70.474
-70.62
-70.722
-70.772
-70.766
-70.697
-70.56
-70.35
-70.062
-69.693
-69.236
-68.691
-68.052
-67.319
-66.488
-65.56
-64.532
-63.407
-62.183
-60.864
-59.451
-57.949
-56.36
-54.689
-52.94
-51.12
-49.234
-47.289
-45.293
-43.253
-41.179
-39.081
-36.973
-34.866
-32.772
-30.703
-28.671
-26.691
-24.772
-22.925
-21.16
-19.483
-17.906
-16.438
-15.092
-13.877
-12.806
-11.887
-11.131
-10.545
-10.137
-9.908
-9.858
-9.987
-10.296
-10.788
-11.47
-12.349
-13.422
-14.688
-16.138
-17.757
-19.53
-21.431
-23.426
-25.486
-27.581
-29.686
-31.78
-33.842
-35.854
-37.8
-39.649
-41.387
-43.001
-44.475
-45.827
-47.076
-48.238
-49.348
-50.424
-51.468
-52.511
-53.596
-54.744
-56.002
-57.377
-58.853
-60.516
-62.436
-64.599
-66.897
-69.142
-71.112
-72.483
-73.053
-72.63
-70.779
-68.166
-65.805
-63.513
-61.898
-59.22
-52.405
-43.272
-33.853
-29.39
-37.334
-55.5
-77.181
-91.26
-84.113
-53.103
-4.036
52.419
104.251
146.434
179.989
208.093
232.408
251.868
264.326
267.638
261.445
246.444
223.183
193
158.079
120.533
82.107
44.354
8.432
-24.22
-51.578
-72.469
-86.906
-95.32
-98.303
-96.605
-90.942
-82.585
-73.524
-65.159
-58.118
-52.699
-48.857
-46.489
-45.559
-45.613
-45.77
-45.459
-44.449
-42.732
-40.555
-38.121
-35.529
-33.006
-30.888
-29.372
-28.529
-28.321
-28.579
-29.149
-29.914
-30.741
-31.482
-32.038
-32.341
-32.34
-32.024
-31.386
-30.411
-29.099
-27.456
-25.486
-23.203
-20.633
-17.798
-14.731
-11.472
-8.057
-4.527
-0.912
2.769
6.503
10.282
14.102
17.963
21.867
25.823
29.833
33.9
38.028
42.217
46.469
50.789
55.18
59.644
64.184
68.796
73.475
78.217
83.011
87.848
92.715
97.598
102.481
107.35
112.191
116.989
121.727
126.389
130.956
135.411
139.735
143.909
147.912
151.725
155.326
158.697
161.819
164.673
167.244
169.513
171.466
173.09
174.371
175.298
175.861
176.051
175.862
175.289
174.328
172.977
171.238
169.114
166.607
163.727
160.48
156.877
152.931
148.656
144.068
139.183
134.023
128.606
122.955
117.092
111.042
104.831
98.482
92.023
85.48
78.877
72.243
65.601
58.978
52.397
45.883
39.458
33.145
26.965
20.938
15.083
9.417
3.957
-1.283
-6.29
-11.053
-15.561
-19.806
-23.782
-27.485
-30.91
-34.056
-36.924
-39.515
-41.831
-43.878
-45.66
-47.185
-48.46
-49.494
-50.298
-50.881
-51.254
-51.43
-51.42
-51.236
-50.891
-50.398
-49.769
-49.019
-48.159
-47.204
-46.166
-45.059
-43.895
-42.686
-41.446
-40.185
-38.916
-37.649
-36.394
-35.162
-33.962
-32.803
-31.693
-30.64
-29.65
-28.731
-27.887
-27.125
-26.448
-25.861
-25.366
-24.967
-24.666
-24.465
-24.364
-24.363
-24.463
-24.664
-24.963
-25.359
-25.848
-26.429
-27.096
-27.845
-28.67
-29.566
-30.526
-31.543
-32.608
-33.713
-34.851
-36.012
-37.186
-38.364
-39.535
-40.69
-41.818
-42.908
-43.948
-44.929
-45.838
-46.666
-47.402
-48.035
-48.555
-48.955
-49.224
-49.356
-49.343
-49.178
-48.855
-48.37
-47.718
-46.897
-45.904
-44.739
-43.404
-41.899
-40.23
-38.4
-36.418
-34.288
-32.02
-29.623
-27.108
-24.487
-21.771
-18.974
-16.111
-13.2
-10.258
-7.305
-4.362
-1.447
1.42
4.216
6.925
9.526
12.004
14.344
16.531
18.548
20.381
22.015
23.439
24.639
25.604
26.326
26.797
27.014
26.974
26.677
26.123
25.313
24.244
22.912
21.317
19.465
17.363
15.024
12.464
9.706
6.779
3.72
0.571
-2.629
-5.839
-9.019
-12.133
-15.152
-18.044
-20.768
-23.294
-25.605
-27.694
-29.565
-31.22
-32.646
-33.857
-34.903
-35.851
-36.792
-37.817
-38.982
-40.359
-42.036
-44.033
-46.313
-48.753
-51.111
-53.163
-54.774
-55.773
-55.961
-55.357
-54.124
-52.606
-51.397
-50.901
-51.21
-52.516
-55.04
-58.506
-62.292
-65.329
-66.019
-63.215
-56.294
-44.388
-26.597
-2.623
27.338
62.194
99.957
139.03
178.064
215.095
247.849
274.189
292.153
300.697
299.61
288.463
267.075
236.313
197.825
153.851
107.099
59.977
14.684
-26.148
-60.126
-85.91
-103.069
-111.969
-113.708
-109.523
-100.839
-89.769
-78.479
-68.402
-60.366
-54.649
-51.039
-49.281
-49.03
-49.451
-49.606
-48.974
-47.338
-44.793
-41.654
-38.141
-34.451
-30.924
-27.932
-25.687
-24.267
-23.589
-23.48
-23.806
-24.448
-25.28
-26.164
-26.954
-27.551
-27.889
-27.937
-27.684
-27.113
-26.204
-24.948
-23.354
-21.439
-19.234
-16.77
-14.067
-11.154
-8.061
-4.821
-1.479
1.934
5.402
8.914
12.467
16.061
19.694
23.369
27.1
30.898
34.773
38.735
42.786
46.929
51.172
55.522
59.983
64.559
69.245
74.037
78.93
83.915
88.982
94.117
99.305
104.528
109.772
115.021
120.256
125.461
130.614
135.696
140.686
145.562
150.301
154.88
159.274
163.459
167.411
171.107
174.524
177.639
180.432
182.881
184.968
186.676
187.988
188.89
189.37
189.416
189.022
188.18
186.888
185.144
182.95
180.307
177.223
173.705
169.764
165.411
160.661
155.532
150.041
144.21
138.06
131.616
124.904
117.95
110.782
103.431
95.925
88.295
80.572
72.786
64.969
57.15
49.359
41.625
33.977
26.44
19.041
11.803
4.75
-2.098
-8.722
-15.105
-21.232
-27.09
-32.667
-37.955
-42.946
-47.636
-52.022
-56.102
-59.877
-63.351
-66.528
-69.414
-72.017
-74.346
-76.412
-78.226
-79.801
-81.15
-82.288
-83.231
-83.992
-84.589
-85.037
-85.353
-85.552
-85.65
-85.663
-85.605
-85.492
-85.336
-85.15
-84.946
-84.736
-84.53
-84.336
-84.163
-84.018
-83.907
-83.835
-83.806
-83.822
-83.886
-83.999
-84.16
-84.368
-84.623
-84.922
-85.262
-85.64
-86.052
-86.495
-86.962
-87.451
-87.954
-88.468
-88.986
-89.503
-90.013
-90.511
-90.991
-91.45
-91.882
-92.284
-92.651
-92.98
-93.269
-93.514
-93.714
-93.868
-93.975
-94.035
-94.047
-94.013
-93.934
-93.813
-93.652
-93.453
-93.219
-92.954
-92.661
-92.343
-92.004
-91.647
-91.277
-90.897
-90.512
-90.124
-89.739
-89.359
-88.988
-88.631
-88.288
-87.964
-87.66
-87.378
-87.12
-86.886
-86.677
-86.493
-86.335
-86.2
-86.089
-85.998
-85.924
-85.865
-85.817
-85.774
-85.731
-85.682
-85.623
-85.548
-85.45
-85.323
-85.162
-84.96
-84.712
-84.411
-84.052
-83.628
-83.134
-82.564
-81.913
-81.178
-80.354
-79.437
-78.425
-77.316
-76.11
-74.806
-73.404
-71.903
-70.306
-68.616
-66.835
-64.97
-63.025
-61.007
-58.925
-56.79
-54.615
-52.41
-50.188
-47.962
-45.744
-43.549
-41.387
-39.271
-37.209
-35.216
-33.303
-31.484
-29.773
-28.181
-26.722
-25.409
-24.254
-23.267
-22.455
-21.82
-21.367
-21.102
-21.032
-21.168
-21.518
-22.08
-22.855
-23.84
-25.025
-26.389
-27.905
-29.528
-31.225
-32.965
-34.723
-36.479
-38.204
-39.863
-41.433
-42.888
-44.21
-45.387
-46.402
-47.242
-47.927
-48.504
-49.03
-49.585
-50.225
-50.976
-51.894
-53.021
-54.411
-56.129
-58.205
-60.633
-63.42
-66.584
-70.087
-73.853
-77.679
-81.225
-84.164
-86.198
-87.098
-86.722
-85.038
-82.112
-78.154
-73.602
-68.969
-64.757
-61.214
-58.229
-55.367
-52.058
-47.633
-41.089
-31.143
-16.355
3.737
28.248
56.065
86.606
121.295
162.497
209.69
258.171
299.391
324.334
328.748
314.465
287.718
254.959
219.874
182.987
142.571
98.108
50.77
2.945
-41.525
-79.579
-109.552
-130.677
-143.269
-148.119
-145.687
-136.624
-122.516
-105.415
-87.519
-70.697
-55.94
-43.677
-34.476
-28.922
-26.901
-27.713
-30.186
-33.052
-35.657
-37.783
-39.104
-39.175
-37.828
-35.214
-31.888
-28.639
-25.861
-23.624
-21.977
-20.976
-20.655
-20.976
-21.685
-22.375
-22.802
-22.879
-22.587
-21.958
-20.985
-19.634
-17.932
-15.953
-13.757
-11.383
-8.84
-6.119
-3.23
-0.208
2.905
6.075
9.285
12.535
15.825
19.161
22.546
25.986
29.497
33.092
36.782
40.574
44.468
48.466
52.574
56.798
61.145
65.621
70.226
74.958
79.813
84.784
89.862
95.035
100.288
105.609
110.981
116.391
121.822
127.257
132.678
138.064
143.396
148.65
153.803
158.831
163.709
168.412
172.916
177.197
181.231
184.994
188.464
191.619
194.44
196.908
199.005
200.714
202.021
202.914
203.382
203.416
203.01
202.158
200.859
199.113
196.922
194.291
191.226
187.737
183.835
179.534
174.85
169.801
164.407
158.691
152.675
146.386
139.85
133.095
126.152
119.048
111.815
104.484
97.083
89.644
82.197
74.769
67.391
60.09
52.892
45.822
38.906
32.165
25.621
19.293
13.2
7.357
1.779
-3.523
-8.537
-13.256
-17.673
-21.784
-25.586
-29.079
-32.265
-35.146
-37.729
-40.02
-42.028
-43.763
-45.236
-46.46
-47.448
-48.214
-48.772
-49.137
-49.325
-49.351
-49.23
-48.978
-48.611
-48.142
-47.587
-46.96
-46.275
-45.543
-44.778
-43.991
-43.193
-42.394
-41.604
-40.83
-40.08
-39.361
-38.679
-38.037
-37.441
-36.891
-36.391
-35.939
-35.537
-35.182
-34.874
-34.61
-34.387
-34.203
-34.054
-33.937
-33.847
-33.783
-33.739
-33.712
-33.699
-33.697
-33.702
-33.713
-33.726
-33.741
-33.755
-33.766
-33.775
-33.779
-33.777
-33.77
-33.756
-33.735
-33.709
-33.676
-33.639
-33.598
-33.555
-33.512
-33.471
-33.434
-33.404
-33.381
-33.369
-33.368
-33.381
-33.409
-33.452
-33.513
-33.591
-33.685
-33.797
-33.923
-34.062
-34.211
-34.366
-34.524
-34.681
-34.831
-34.971
-35.095
-35.199
-35.277
-35.325
-35.338
-35.311
-35.238
-35.113
-34.932
-34.689
-34.379
-33.996
-33.537
-32.998
-32.376
-31.669
-30.874
-29.99
-29.017
-27.954
-26.802
-25.565
-24.243
-22.842
-21.366
-19.823
-18.221
-16.573
-14.889
-13.18
-11.46
-9.742
-8.038
-6.362
-4.725
-3.136
-1.606
-0.147
1.228
2.506
3.675
4.72
5.628
6.386
6.985
7.415
7.67
7.748
7.645
7.358
6.881
6.205
5.323
4.232
2.934
1.435
-0.25
-2.099
-4.086
-6.174
-8.328
-10.517
-12.708
-14.877
-17.003
-19.072
-21.065
-22.953
-24.711
-26.318
-27.762
-29.052
-30.21
-31.255
-32.224
-33.165
-34.122
-35.15
-36.307
-37.635
-39.167
-40.921
-42.893
-45.107
-47.597
-50.333
-53.217
-56.055
-58.563
-60.48
-61.598
-61.717
-60.671
-58.436
-55.131
-51.058
-46.748
-42.754
-39.518
-37.25
-35.883
-34.968
-33.804
-31.578
-27.185
-19.334
-6.767
11.347
35.227
64.288
97.387
133.291
170.362
206.343
238.531
264.335
281.623
289.137
286.378
272.878
248.661
214.856
173.547
127.402
79.314
31.793
-13.081
-52.966
-85.692
-110.083
-125.836
-133.444
-134.015
-128.709
-118.634
-105.278
-90.444
-75.575
-61.764
-49.762
-39.817
-32.021
-26.551
-23.468
-22.403
-22.895
-24.373
-26.204
-28.227
-30.312
-32.066
-33.192
-33.347
-32.965
-33.712
-35.772
-38.157
-38.983
-33.905
-22.852
-10.471
-0.905
-1.035
-12.434
-27.753
-41.614
-47.586
-42.397
-32.363
-21.836
-13.928
-11.453
-11.199
-10.846
-10.08
-7.823
-4.937
-2.263
0.544
3.428
6.401
9.63
13.023
16.499
20.087
23.78
27.541
31.37
35.289
39.309
43.447
47.721
52.125
56.655
61.315
66.104
71.017
76.044
81.172
86.385
91.666
97
102.372
107.762
113.154
118.528
123.864
129.141
134.338
139.434
144.404
149.223
153.867
158.31
162.53
166.503
170.206
173.616
176.713
179.475
181.884
183.921
185.571
186.817
187.647
188.049
188.014
187.536
186.61
185.234
183.407
181.133
178.417
175.266
171.688
167.696
163.303
158.525
153.379
147.887
142.069
135.949
129.552
122.903
116.031
108.963
101.728
94.356
86.875
79.317
71.712
64.089
56.477
48.906
41.404
33.999
26.716
19.579
12.614
5.84
-0.722
-7.053
-13.138
-18.963
-24.513
-29.779
-34.752
-39.426
-43.795
-47.858
-51.613
-55.062
-58.208
-61.054
-63.608
-65.877
-67.869
-69.594
-71.062
-72.287
-73.281
-74.056
-74.628
-75.011
-75.22
-75.271
-75.178
-74.958
-74.624
-74.193
-73.679
-73.094
-72.453
-71.768
-71.052
-70.316
-69.57
-68.824
-68.088
-67.369
-66.674
-66.01
-65.381
-64.792
-64.247
-63.748
-63.297
-62.897
-62.548
-62.251
-62.006
-61.812
-61.67
-61.577
-61.531
-61.532
-61.576
-61.661
-61.785
-61.945
-62.139
-62.364
-62.619
-62.901
-63.207
-63.534
-63.878
-64.236
-64.607
-64.99
-65.379
-65.77
-66.167
-66.573
-66.991
-67.425
-67.867
-68.304
-68.744
-69.194
-69.629
-70.029
-70.378
-70.652
-70.867
-71.053
-71.19
-71.238
-71.285
-71.437
-71.625
-71.85
-72.128
-72.223
-72.756
-74.333
-76.078
-77.723
-77.664
-73.985
-68.801
-63.52
-60.244
-61.857
-65.802
-69.911
-72.698
-71.708
-68.693
-65.43
-62.316
-60.434
-59.157
-57.681
-56.161
-54.499
-52.752
-51.09
-49.41
-47.633
-45.795
-43.909
-41.974
-40.001
-38.01
-36.016
-34.047
-32.135
-30.285
-28.504
-26.805
-25.2
-23.698
-22.311
-21.043
-19.902
-18.898
-18.041
-17.342
-16.811
-16.456
-16.286
-16.304
-16.515
-16.922
-17.522
-18.314
-19.296
-20.468
-21.835
-23.4
-25.164
-27.122
-29.262
-31.565
-34.004
-36.552
-39.169
-41.82
-44.467
-47.072
-49.605
-52.045
-54.381
-56.596
-58.663
-60.555
-62.253
-63.752
-65.067
-66.228
-67.262
-68.207
-69.12
-70.05
-71.066
-72.252
-73.668
-75.369
-77.383
-79.691
-82.301
-85.251
-88.504
-91.963
-95.432
-98.56
-101.04
-102.744
-103.526
-103.274
-102.018
-99.73
-96.591
-93.242
-90.294
-88.047
-86.58
-85.534
-84.195
-82.154
-78.821
-72.934
-63.159
-48.342
-27.852
-2.147
27.571
60.364
95.122
129.936
162.429
189.819
209.696
220.825
222.809
215.186
197.572
170.502
135.509
95.107
52.087
8.758
-33.003
-71.086
-103.062
-127.338
-143.402
-151.662
-153.22
-149.241
-140.785
-129.404
-117.22
-105.795
-95.996
-88.219
-82.285
-77.965
-75.15
-73.345
-71.69
-69.65
-67.005
-63.732
-60.111
-56.379
-52.642
-49.152
-46.249
-44.113
-42.801
-42.262
-42.315
-42.795
-43.582
-44.517
-45.432
-46.203
-46.737
-46.979
-46.926
-46.568
-45.887
-44.88
-43.553
-41.921
-40.013
-37.856
-35.462
-32.851
-30.065
-27.151
-24.132
-21.019
-17.816
-14.513
-11.129
-7.698
-4.199
-0.591
3.05
6.628
10.213
13.805
17.388
21.192
24.614
27.065
29.401
31.88
36.06
43.802
53.037
62.381
69.774
72.391
72.706
72.814
74.148
79.083
85.896
92.837
99.505
104.826
109.394
113.979
118.409
122.766
126.976
130.858
134.498
137.959
141.195
144.182
146.911
149.364
151.519
153.358
154.852
155.973
156.715
157.078
157.051
156.63
155.811
154.59
152.971
150.956
148.551
145.76
142.592
139.057
135.167
130.938
126.385
121.525
116.378
110.965
105.306
99.426
93.347
87.094
80.693
74.169
67.549
60.857
54.122
47.368
40.621
33.907
27.25
20.673
14.201
7.853
1.652
-4.383
-10.235
-15.886
-21.321
-26.528
-31.493
-36.206
-40.661
-44.848
-48.765
-52.407
-55.773
-58.862
-61.676
-64.218
-66.49
-68.499
-70.251
-71.752
-73.01
-74.035
-74.837
-75.426
-75.813
-76.01
-76.029
-75.882
-75.582
-75.141
-74.571
-73.886
-73.098
-72.219
-71.26
-70.235
-69.152
-68.024
-66.86
-65.669
-64.46
-63.241
-62.019
-60.801
-59.593
-58.4
-57.228
-56.08
-54.959
-53.87
-52.813
-51.791
-50.805
-49.856
-48.942
-48.065
-47.222
-46.412
-45.634
-44.885
-44.162
-43.462
-42.781
-42.116
-41.464
-40.819
-40.179
-39.54
-38.897
-38.247
-37.585
-36.909
-36.214
-35.497
-34.753
-33.979
-33.171
-32.326
-31.441
-30.512
-29.537
-28.515
-27.444
-26.323
-25.151
-23.928
-22.655
-21.332
-19.961
-18.543
-17.081
-15.579
-14.041
-12.473
-10.879
-9.266
-7.639
-6.006
-4.373
-2.746
-1.134
0.457
2.02
3.547
5.029
6.455
7.816
9.098
10.292
11.384
12.365
13.223
13.95
14.536
14.976
15.266
15.402
15.379
15.192
14.836
14.305
13.596
12.707
11.638
10.39
8.965
7.367
5.606
3.691
1.627
-0.584
-2.949
-5.474
-8.151
-10.97
-13.916
-16.966
-20.099
-23.285
-26.476
-29.628
-32.694
-35.631
-38.424
-41.064
-43.534
-45.809
-47.847
-49.613
-51.106
-52.354
-53.37
-54.179
-54.79
-55.227
-55.585
-55.973
-56.484
-57.207
-58.176
-59.38
-60.872
-62.74
-64.989
-67.609
-70.475
-73.314
-75.905
-78.08
-79.635
-80.373
-80.264
-79.259
-77.354
-74.978
-72.751
-71.212
-70.937
-71.493
-70.916
-67.965
-62.649
-56.685
-53.942
-55.735
-57.719
-51.564
-27.753
19.28
84.072
152.641
210.623
246.265
258.441
255.567
244.745
231.377
215.673
192.857
161.392
122.263
78.223
33.85
-7.784
-44.591
-74.684
-97.302
-112.322
-120.226
-122.218
-119.56
-113.566
-105.917
-98.279
-91.791
-87.038
-84.059
-82.516
-82.041
-82.255
-82.545
-82.206
-80.845
-78.375
-74.937
-70.878
-66.496
-61.999
-57.675
-53.834
-50.651
-48.198
-46.449
-45.265
-44.534
-44.178
-44.082
-44.145
-44.266
-44.331
-44.264
-44.018
-43.542
-42.811
-41.808
-40.509
-38.907
-37.014
-34.841
-32.414
-29.759
-26.888
-23.825
-20.592
-17.219
-13.744
-10.195
-6.586
-2.928
0.777
4.529
8.324
12.168
16.076
20.059
24.125
28.285
32.537
36.888
41.342
45.906
50.584
55.377
60.281
65.292
70.403
75.607
80.893
86.247
91.652
97.091
102.55
108.01
113.456
118.867
124.224
129.506
134.692
139.761
144.69
149.456
154.036
158.405
162.543
166.427
170.037
173.35
176.349
179.014
181.328
183.277
184.847
186.024
186.798
187.161
187.107
186.631
185.731
184.408
182.663
180.501
177.929
174.955
171.59
167.847
163.741
159.288
154.506
149.417
144.042
138.404
132.528
126.438
120.162
113.727
107.159
100.488
93.741
86.946
80.131
73.323
66.549
59.835
53.205
46.684
40.294
34.057
27.991
22.116
16.448
11.003
5.792
0.829
-3.877
-8.318
-12.488
-16.382
-19.998
-23.335
-26.394
-29.177
-31.688
-33.933
-35.917
-37.649
-39.138
-40.394
-41.427
-42.25
-42.873
-43.311
-43.578
-43.685
-43.647
-43.475
-43.183
-42.785
-42.295
-41.726
-41.086
-40.394
-39.665
-38.911
-38.152
-37.393
-36.624
-35.857
-35.104
-34.342
-33.564
-32.77
-31.934
-31.065
-30.221
-29.399
-28.576
-27.864
-27.353
-26.942
-26.654
-26.538
-26.271
-26.375
-27.523
-28.825
-29.99
-29.624
-25.191
-18.239
-11.017
-5.89
-7.294
-14.476
-23.225
-30.692
-32.39
-27.322
-19.72
-12.047
-6.812
-5.724
-6.29
-6.967
-7.273
-6.229
-4.603
-3.062
-1.376
0.325
2.083
4.061
6.149
8.253
10.392
12.55
14.691
16.818
18.933
21.028
23.104
25.168
27.201
29.187
31.118
32.984
34.774
36.482
38.1
39.62
41.036
42.342
43.529
44.588
45.512
46.296
46.935
47.424
47.761
47.941
47.97
47.85
47.581
47.162
46.579
45.825
44.904
43.82
42.587
41.224
39.746
38.176
36.554
34.916
33.3
31.742
30.253
28.839
27.513
26.293
25.211
24.296
23.545
22.94
22.457
22.073
21.768
21.515
21.247
20.884
20.338
19.531
18.423
16.997
15.263
13.206
10.772
7.977
4.926
1.819
-1.037
-3.381
-5.142
-6.236
-6.524
-6.01
-4.676
-2.683
-0.62
0.991
1.979
2.345
2.416
2.852
4.017
6.402
11.137
19.326
31.863
49.313
71.297
96.768
124.974
154.992
185.157
213.548
237.859
255.842
266.268
268.595
262.193
246.753
222.78
191.449
154.857
115.604
75.862
37.585
2.908
-26.3
-48.895
-64.427
-73.316
-76.668
-75.602
-71.362
-65.589
-59.76
-54.844
-51.446
-49.679
-49.217
-49.759
-50.894
-51.887
-52.206
-51.633
-50.058
-47.638
-44.689
-41.424
-38.123
-35.174
-32.793
-31.084
-30.095
-29.725
-29.857
-30.419
-31.273
-32.281
-33.344
-34.345
-35.208
-35.906
-36.383
-36.604
-36.549
-36.187
-35.507
-34.522
-33.234
-31.659
-29.823
-27.743
-25.449
-22.978
-20.36
-17.638
-14.843
-11.992
-9.099
-6.175
-3.22
-0.241
2.765
5.808
8.897
12.035
15.229
18.48
21.792
25.17
28.621
32.149
35.756
39.441
43.201
47.031
50.923
54.868
58.853
62.863
66.884
70.901
74.9
78.866
82.784
86.637
90.408
94.079
97.634
101.053
104.317
107.406
110.3
112.981
115.43
117.628
119.558
121.204
122.55
123.58
124.283
124.644
124.654
124.302
123.582
122.486
121.013
119.16
116.927
114.319
111.341
107.999
104.304
100.267
95.902
91.223
86.248
80.994
75.482
69.733
63.769
57.614
51.293
44.831
38.254
31.589
24.863
18.102
11.334
4.586
-2.118
-8.749
-15.285
-21.699
-27.969
-34.072
-39.987
-45.695
-51.178
-56.42
-61.407
-66.127
-70.569
-74.726
-78.591
-82.162
-85.435
-88.411
-91.091
-93.479
-95.579
-97.398
-98.943
-100.224
-101.251
-102.035
-102.588
-102.923
-103.055
-102.998
-102.767
-102.378
-101.847
-101.19
-100.422
-99.561
-98.623
-97.623
-96.576
-95.499
-94.404
-93.305
-92.215
-91.145
-90.105
-89.105
-88.152
-87.253
-86.413
-85.636
-84.926
-84.284
-83.711
-83.208
-82.773
-82.407
-82.105
-81.866
-81.685
-81.557
-81.479
-81.442
-81.441
-81.468
-81.516
-81.576
-81.641
-81.701
-81.75
-81.778
-81.777
-81.739
-81.657
-81.523
-81.329
-81.069
-80.737
-80.327
-79.836
-79.259
-78.596
-77.844
-77.005
-76.078
-75.064
-73.967
-72.787
-71.529
-70.196
-68.792
-67.324
-65.796
-64.217
-62.597
-60.946
-59.276
-57.599
-55.927
-54.274
-52.651
-51.071
-49.545
-48.081
-46.689
-45.377
-44.155
-43.034
-42.026
-41.143
-40.393
-39.787
-39.331
-39.03
-38.892
-38.917
-39.1
-39.439
-39.933
-40.587
-41.413
-42.419
-43.601
-44.952
-46.461
-48.112
-49.892
-51.772
-53.707
-55.653
-57.564
-59.411
-61.185
-62.88
-64.478
-65.955
-67.273
-68.405
-69.358
-70.142
-70.754
-71.194
-71.455
-71.558
-71.586
-71.634
-71.799
-72.152
-72.721
-73.502
-74.522
-75.831
-77.434
-79.281
-81.183
-82.85
-84.036
-84.586
-84.427
-83.458
-81.619
-78.905
-75.519
-72.006
-68.994
-66.983
-66.087
-66.123
-66.688
-67.192
-66.779
-64.087
-57.483
-45.901
-29.631
-9.451
14.443
43.753
81.427
127.999
179.167
225.353
256.326
266.709
258.097
238.214
214.574
190.866
166.912
139.827
108.155
72.427
34.676
-1.936
-34.934
-62.413
-83.351
-98.005
-106.841
-110.235
-108.874
-103.544
-95.508
-86.695
-78.451
-71.373
-65.752
-61.573
-58.754
-57.255
-56.642
-56.091
-55.077
-53.414
-51.128
-48.476
-45.664
-42.799
-40.107
-37.91
-36.399
-35.636
-35.57
-36.033
-36.863
-37.938
-39.118
-40.253
-41.235
-41.99
-42.461
-42.63
-42.485
-42.006
-41.19
-40.038
-38.555
-36.753
-34.658
-32.293
-29.693
-26.897
-23.943
-20.874
-17.719
-14.495
-11.216
-7.89
-4.515
-1.094
2.378
5.912
9.512
13.181
16.924
20.743
24.642
28.625
32.698
36.863
41.124
45.478
49.921
54.446
59.045
63.709
68.424
73.175
77.947
82.728
87.502
92.256
96.973
101.635
106.227
110.729
115.124
119.391
123.51
127.458
131.217
134.764
138.081
141.148
143.947
146.459
148.669
150.56
152.119
153.333
154.191
154.681
154.797
154.531
153.88
152.84
151.41
149.593
147.39
144.809
141.855
138.539
134.872
130.866
126.535
121.898
116.972
111.776
106.333
100.664
94.794
88.748
82.551
76.231
69.813
63.326
56.796
50.249
43.713
37.213
30.775
24.424
18.182
12.073
6.118
0.337
-5.251
-10.628
-15.78
-20.693
-25.353
-29.752
-33.881
-37.732
-41.302
-44.586
-47.585
-50.298
-52.728
-54.878
-56.755
-58.364
-59.715
-60.817
-61.681
-62.318
-62.741
-62.964
-63
-62.864
-62.571
-62.137
-61.576
-60.905
-60.139
-59.294
-58.386
-57.429
-56.438
-55.426
-54.408
-53.397
-52.402
-51.437
-50.511
-49.632
-48.81
-48.051
-47.361
-46.745
-46.208
-45.752
-45.38
-45.092
-44.888
-44.768
-44.731
-44.773
-44.892
-45.085
-45.347
-45.674
-46.058
-46.495
-46.976
-47.495
-48.043
-48.611
-49.19
-49.771
-50.346
-50.905
-51.438
-51.937
-52.393
-52.798
-53.143
-53.421
-53.624
-53.745
-53.779
-53.72
-53.564
-53.306
-52.943
-52.472
-51.892
-51.202
-50.403
-49.493
-48.473
-47.346
-46.114
-44.782
-43.354
-41.836
-40.235
-38.559
-36.821
-35.033
-33.205
-31.351
-29.485
-27.619
-25.769
-23.948
-22.167
-20.437
-18.772
-17.184
-15.689
-14.299
-13.026
-11.885
-10.886
-10.041
-9.361
-8.853
-8.518
-8.362
-8.391
-8.613
-9.042
-9.685
-10.544
-11.618
-12.905
-14.391
-16.062
-17.89
-19.836
-21.867
-23.957
-26.077
-28.209
-30.323
-32.381
-34.356
-36.219
-37.945
-39.521
-40.928
-42.155
-43.234
-44.205
-45.118
-46.042
-47.009
-48.05
-49.231
-50.602
-52.233
-54.193
-56.492
-59.15
-62.226
-65.686
-69.445
-73.343
-77.028
-80.179
-82.584
-83.952
-84.07
-82.976
-80.763
-77.736
-74.503
-71.459
-68.905
-67.263
-66.569
-66.354
-65.916
-64.12
-59.599
-51.412
-38.578
-19.905
5.111
36.17
72.289
111.646
152.211
192.321
229.873
262.18
286.97
302.609
308.293
304.205
290.656
267.723
236.238
198.06
155.417
110.63
65.663
21.993
-18.664
-54.148
-82.801
-103.959
-117.74
-124.822
-125.973
-121.981
-114.079
-104.116
-93.9
-84.58
-76.709
-70.403
-65.64
-62.371
-60.318
-58.803
-57.07
-54.752
-51.801
-48.382
-44.744
-41.048
-37.454
-34.25
-31.746
-30.092
-29.285
-29.2
-29.645
-30.48
-31.593
-32.855
-34.112
-35.207
-36.032
-36.533
-36.692
-36.504
-35.952
-35.013
-33.686
-31.997
-29.978
-27.664
-25.087
-22.266
-19.231
-16.018
-12.666
-9.218
-5.704
-2.136
1.477
5.134
8.833
12.574
16.362
20.214
24.142
28.153
32.254
36.444
40.727
45.108
49.59
54.176
58.864
63.647
68.519
73.473
78.497
83.578
88.701
93.846
98.997
104.135
109.242
114.301
119.29
124.19
128.979
133.637
138.143
142.472
146.602
150.511
154.176
157.576
160.689
163.495
165.976
168.113
169.892
171.296
172.314
172.934
173.146
172.942
172.319
171.271
169.799
167.903
165.586
162.856
159.718
156.185
152.268
147.982
143.342
138.367
133.077
127.492
121.637
115.534
109.209
102.689
96.001
89.172
82.232
75.209
68.131
61.026
53.924
46.851
39.834
32.898
26.068
19.367
12.818
6.441
0.256
-5.72
-11.472
-16.985
-22.247
-27.248
-31.981
-36.437
-40.614
-44.508
-48.118
-51.444
-54.489
-57.256
-59.749
-61.976
-63.943
-65.659
-67.134
-68.378
-69.403
-70.22
-70.841
-71.281
-71.55
-71.664
-71.635
-71.476
-71.2
-70.821
-70.35
-69.8
-69.182
-68.508
-67.789
-67.034
-66.253
-65.454
-64.645
-63.832
-63.024
-62.225
-61.441
-60.676
-59.936
-59.223
-58.541
-57.893
-57.28
-56.706
-56.171
-55.676
-55.221
-54.808
-54.436
-54.105
-53.814
-53.563
-53.351
-53.177
-53.04
-52.938
-52.87
-52.833
-52.826
-52.847
-52.894
-52.965
-53.056
-53.168
-53.295
-53.437
-53.59
-53.751
-53.916
-54.082
-54.245
-54.399
-54.541
-54.665
-54.767
-54.841
-54.884
-54.888
-54.85
-54.765
-54.627
-54.431
-54.172
-53.846
-53.448
-52.973
-52.418
-51.78
-51.055
-50.24
-49.335
-48.337
-47.246
-46.062
-44.785
-43.416
-41.956
-40.41
-38.781
-37.073
-35.293
-33.447
-31.546
-29.6
-27.621
-25.618
-23.605
-21.593
-19.596
-17.625
-15.691
-13.804
-11.975
-10.217
-8.545
-6.972
-5.51
-4.172
-2.971
-1.919
-1.026
-0.298
0.262
0.649
0.857
0.878
0.697
0.306
-0.296
-1.11
-2.134
-3.355
-4.759
-6.32
-7.999
-9.768
-11.604
-13.487
-15.403
-17.331
-19.236
-21.094
-22.879
-24.563
-26.135
-27.573
-28.864
-30.035
-31.126
-32.183
-33.271
-34.412
-35.62
-36.94
-38.405
-40.067
-41.993
-44.191
-46.687
-49.549
-52.755
-56.225
-59.795
-63.093
-65.77
-67.591
-68.245
-67.536
-65.553
-62.48
-58.778
-55.232
-52.392
-50.689
-50.62
-52.208
-54.92
-57.898
-59.727
-58.744
-53.716
-43.382
-26.401
-2.238
28.876
65.918
106.931
149.791
192.543
232.697
267.363
294.157
311.215
317.594
313.289
298.294
272.84
238.213
196.601
150.553
102.722
55.312
10.196
-30.344
-64.053
-89.568
-106.587
-115.671
-117.778
-113.826
-104.851
-92.452
-78.783
-65.764
-54.463
-45.228
-38.149
-33.293
-30.748
-30.383
-31.295
-32.354
-32.996
-33.073
-32.61
-31.699
-30.212
-27.911
-25.111
-22.447
-20.258
-18.695
-17.725
-17.162
-16.989
-17.341
-18.108
-18.983
-19.737
-20.184
-20.256
-20.021
-19.48
-18.57
-17.276
-15.626
-13.666
-11.463
-9.054
-6.434
-3.615
-0.618
2.524
5.76
9.06
12.412
15.81
19.256
22.75
26.29
29.878
33.524
37.24
41.034
44.919
48.904
52.995
57.197
61.511
65.937
70.461
75.06
79.706
84.367
89.018
93.643
98.231
102.787
107.313
111.819
116.301
120.743
125.129
129.448
133.694
137.866
141.979
146.058
150.139
154.265
158.461
162.73
167.043
171.343
175.555
179.588
183.369
186.848
189.976
192.712
195.015
196.84
198.131
198.822
198.83
198.057
196.432
193.914
190.504
186.247
181.218
175.523
169.255
162.494
155.309
147.758
139.896
131.775
123.459
115.011
106.52
98.093
89.821
81.779
74.011
66.528
59.315
52.334
45.552
38.945
32.498
26.21
20.09
14.146
8.391
2.841
-2.505
-7.662
-12.645
-17.466
-22.125
-26.609
-30.896
-34.955
-38.758
-42.281
-45.508
-48.432
-51.053
-53.379
-55.421
-57.2
-58.729
-60.019
-61.081
-61.922
-62.554
-62.992
-63.252
-63.352
-63.313
-63.154
-62.894
-62.549
-62.135
-61.665
-61.15
-60.597
-60.015
-59.412
-58.798
-58.181
-57.571
-56.974
-56.399
-55.853
-55.342
-54.871
-54.441
-54.057
-53.717
-53.424
-53.177
-52.976
-52.818
-52.704
-52.631
-52.599
-52.604
-52.646
-52.723
-52.833
-52.973
-53.143
-53.339
-53.561
-53.806
-54.074
-54.362
-54.669
-54.994
-55.336
-55.693
-56.063
-56.446
-56.84
-57.242
-57.651
-58.067
-58.486
-58.908
-59.333
-59.76
-60.188
-60.617
-61.046
-61.475
-61.902
-62.327
-62.747
-63.162
-63.567
-63.961
-64.339
-64.698
-65.035
-65.345
-65.624
-65.867
-66.069
-66.227
-66.336
-66.391
-66.388
-66.324
-66.194
-65.995
-65.724
-65.379
-64.958
-64.457
-63.876
-63.214
-62.47
-61.644
-60.735
-59.744
-58.671
-57.518
-56.288
-54.983
-53.607
-52.165
-50.663
-49.111
-47.519
-45.895
-44.25
-42.596
-40.944
-39.306
-37.693
-36.113
-34.575
-33.09
-31.67
-30.326
-29.07
-27.911
-26.86
-25.927
-25.123
-24.455
-23.929
-23.545
-23.305
-23.218
-23.288
-23.533
-23.958
-24.565
-25.356
-26.329
-27.474
-28.782
-30.23
-31.78
-33.406
-35.079
-36.776
-38.481
-40.165
-41.794
-43.343
-44.781
-46.082
-47.235
-48.222
-49.043
-49.723
-50.295
-50.798
-51.286
-51.802
-52.405
-53.164
-54.12
-55.335
-56.85
-58.703
-60.994
-63.732
-66.829
-70.176
-73.547
-76.689
-79.449
-81.572
-82.686
-82.743
-81.872
-80.257
-78.351
-76.571
-75.204
-74.653
-75.383
-76.727
-76.93
-75.222
-71.109
-65.239
-60.092
-54.148
-42.963
-22.773
11.084
57.61
109.965
162.528
209.03
245.864
273.875
292.857
302.652
303.078
292.535
270.514
238.074
197.151
150.607
101.455
52.021
4.516
-38.672
-75.292
-103.556
-122.775
-133.411
-136.41
-132.638
-123.222
-109.661
-93.968
-78.567
-64.993
-53.739
-45.055
-39.083
-35.889
-35.545
-37.353
-39.807
-42.008
-43.689
-44.708
-45.186
-45.075
-44.002
-42.164
-40.306
-38.847
-37.984
-37.761
-37.91
-38.333
-39.173
-40.315
-41.476
-42.468
-43.093
-43.275
-43.101
-42.585
-41.683
-40.403
-38.756
-36.771
-34.515
-32.019
-29.296
-26.373
-23.273
-20.036
-16.702
-13.288
-9.808
-6.266
-2.657
1.022
4.776
8.614
12.539
16.554
20.665
24.873
29.18
33.589
38.102
42.722
47.456
52.301
57.255
62.309
67.456
72.685
77.984
83.338
88.73
94.143
99.563
104.98
110.368
115.704
120.966
126.127
131.171
136.087
140.842
145.404
149.771
153.937
157.892
161.635
165.129
168.319
171.206
173.806
176.013
177.71
178.943
179.696
179.938
179.885
178.927
176.472
173.358
169.841
167.466
168.086
169.664
170.847
169.616
163.198
154.075
144.355
135.49
129.87
125.826
121.668
117.042
110.93
103.969
96.968
89.809
82.621
75.384
67.969
60.51
53.119
45.798
38.569
31.467
24.518
17.739
11.151
4.759
-1.435
-7.406
-13.13
-18.597
-23.794
-28.711
-33.341
-37.676
-41.71
-45.442
-48.872
-52.002
-54.836
-57.378
-59.636
-61.618
-63.332
-64.79
-66.003
-66.984
-67.747
-68.304
-68.672
-68.863
-68.894
-68.78
-68.535
-68.175
-67.714
-67.167
-66.547
-65.869
-65.144
-64.385
-63.603
-62.809
-62.013
-61.224
-60.449
-59.696
-58.972
-58.282
-57.63
-57.02
-56.455
-55.936
-55.464
-55.041
-54.665
-54.337
-54.054
-53.815
-53.618
-53.459
-53.336
-53.245
-53.184
-53.149
-53.135
-53.141
-53.161
-53.193
-53.234
-53.279
-53.327
-53.375
-53.419
-53.459
-53.492
-53.517
-53.532
-53.538
-53.533
-53.517
-53.491
-53.454
-53.407
-53.352
-53.288
-53.218
-53.143
-53.064
-52.983
-52.902
-52.822
-52.745
-52.672
-52.604
-52.544
-52.492
-52.448
-52.415
-52.392
-52.38
-52.379
-52.389
-52.409
-52.439
-52.478
-52.523
-52.572
-52.622
-52.671
-52.714
-52.749
-52.771
-52.777
-52.762
-52.721
-52.651
-52.547
-52.404
-52.218
-51.982
-51.694
-51.348
-50.94
-50.467
-49.925
-49.311
-48.622
-47.858
-47.015
-46.094
-45.093
-44.012
-42.852
-41.615
-40.303
-38.918
-37.464
-35.946
-34.373
-32.753
-31.096
-29.41
-27.706
-25.994
-24.286
-22.592
-20.921
-19.281
-17.683
-16.136
-14.653
-13.247
-11.928
-10.708
-9.597
-8.606
-7.744
-7.02
-6.438
-6.001
-5.713
-5.583
-5.619
-5.837
-6.244
-6.841
-7.628
-8.6
-9.746
-11.054
-12.499
-14.051
-15.684
-17.373
-19.096
-20.836
-22.565
-24.257
-25.89
-27.427
-28.842
-30.123
-31.264
-32.273
-33.175
-33.983
-34.716
-35.421
-36.146
-36.947
-37.888
-39.02
-40.38
-42.023
-44.027
-46.408
-49.113
-51.995
-54.787
-57.237
-59.171
-60.383
-60.617
-59.826
-58.168
-56.003
-53.987
-52.61
-52.049
-52.569
-54.448
-57.445
-60.897
-63.668
-64.095
-60.934
-53.485
-40.812
-21.949
3.392
34.835
71.059
109.871
149.469
188.481
224.988
256.629
281.233
297.099
303.584
300.976
289.372
268.6
239.16
202.551
160.964
116.747
71.764
27.448
-14.556
-52.047
-82.966
-106.297
-121.965
-130.31
-131.833
-127.069
-116.716
-102.365
-86.143
-69.556
-53.701
-39.632
-27.906
-18.892
-13.229
-10.883
-11.038
-13.296
-16.572
-18.69
-19.389
-19.411
-19.909
-24.266
-32.647
-41.506
-47.674
-46.649
-38.022
-26.825
-17.102
-12.856
-14.934
-19.655
-24.47
-27.588
-28.333
-28.094
-27.533
-26.625
-25.447
-23.785
-21.637
-19.271
-16.791
-14.197
-11.507
-8.73
-5.88
-2.972
0.001
3.059
6.212
9.45
12.771
16.183
19.697
23.323
27.067
30.929
34.908
39.006
43.224
47.564
52.026
56.61
61.312
66.131
71.061
76.093
81.217
86.418
91.679
96.985
102.32
107.667
113.008
118.323
123.592
128.795
133.911
138.916
143.787
148.498
153.025
157.344
161.431
165.263
168.819
172.075
175.013
177.613
179.856
181.727
183.211
184.292
184.959
185.203
185.014
184.388
183.321
181.809
179.855
177.461
174.632
171.376
167.702
163.624
159.155
154.313
149.116
143.585
137.744
131.616
125.228
118.606
111.779
104.775
97.625
90.357
83.002
75.59
68.149
60.709
53.299
45.945
38.676
31.517
24.492
17.624
10.937
4.449
-1.819
-7.852
-13.633
-19.15
-24.39
-29.345
-34.007
-38.371
-42.433
-46.193
-49.652
-52.812
-55.678
-58.255
-60.553
-62.579
-64.344
-65.86
-67.137
-68.19
-69.032
-69.676
-70.138
-70.43
-70.569
-70.569
-70.444
-70.207
-69.874
-69.457
-68.97
-68.424
-67.833
-67.207
-66.557
-65.894
-65.226
-64.561
-63.907
-63.27
-62.656
-62.068
-61.51
-60.984
-60.493
-60.036
-59.615
-59.228
-58.875
-58.555
-58.266
-58.005
-57.771
-57.561
-57.373
-57.204
-57.052
-56.915
-56.791
-56.678
-56.575
-56.48
-56.393
-56.312
-56.236
-56.163
-56.094
-56.028
-55.965
-55.904
-55.847
-55.793
-55.743
-55.7
-55.663
-55.635
-55.615
-55.606
-55.608
-55.623
-55.652
-55.695
-55.754
-55.828
-55.919
-56.026
-56.148
-56.284
-56.432
-56.589
-56.752
-56.916
-57.078
-57.234
-57.378
-57.506
-57.614
-57.696
-57.748
-57.765
-57.742
-57.673
-57.554
-57.378
-57.141
-56.837
-56.463
-56.016
-55.492
-54.889
-54.206
-53.442
-52.595
-51.666
-50.655
-49.563
-48.391
-47.144
-45.824
-44.437
-42.991
-41.495
-39.96
-38.397
-36.817
-35.234
-33.659
-32.104
-30.581
-29.1
-27.669
-26.298
-24.997
-23.778
-22.653
-21.638
-20.743
-19.981
-19.36
-18.89
-18.58
-18.432
-18.447
-18.622
-18.957
-19.457
-20.134
-20.998
-22.049
-23.284
-24.691
-26.254
-27.96
-29.778
-31.666
-33.581
-35.476
-37.319
-39.102
-40.816
-42.449
-43.984
-45.384
-46.622
-47.698
-48.614
-49.371
-49.977
-50.433
-50.77
-51.06
-51.389
-51.839
-52.46
-53.258
-54.235
-55.389
-56.731
-58.309
-60.094
-61.987
-63.867
-65.554
-66.857
-67.632
-67.704
-66.841
-64.971
-62.071
-58.173
-53.661
-49.112
-45.07
-41.93
-39.254
-35.742
-30.463
-23.224
-15.476
-9.504
-6.095
-3.947
2.068
18.52
50.467
99.391
159.206
218.994
266.226
291.437
293.423
277.282
251.736
223.821
195.812
166.897
134.424
97.173
56.328
14.293
-25.512
-59.907
-86.984
-106.088
-117.587
-122.186
-120.622
-113.714
-102.649
-89.575
-76.689
-65.269
-55.983
-49.071
-44.487
-42.35
-42.583
-44.158
-45.913
-47.26
-47.899
-47.837
-47.289
-46.167
-44.353
-42.32
-40.567
-39.319
-38.726
-38.688
-38.965
-39.53
-40.392
-41.325
-42.147
-42.74
-42.963
-42.827
-42.384
-41.603
-40.469
-39.005
-37.215
-35.124
-32.779
-30.188
-27.37
-24.362
-21.191
-17.899
-14.522
-11.071
-7.559
-3.989
-0.358
3.333
7.092
10.928
14.848
18.854
22.953
27.144
31.433
35.825
40.324
44.935
49.664
54.51
59.47
64.54
69.711
74.973
80.316
85.722
91.179
96.67
102.182
107.697
113.199
118.67
124.089
129.437
134.692
139.832
144.833
149.67
154.319
158.757
162.96
166.903
170.565
173.924
176.958
179.648
181.974
183.92
185.469
186.606
187.319
187.597
187.431
186.814
185.743
184.215
182.231
179.795
176.911
173.587
169.835
165.666
161.094
156.138
150.816
145.149
139.16
132.873
126.315
119.515
112.501
105.303
97.952
90.479
82.917
75.296
67.649
60.005
52.397
44.853
37.403
30.075
22.895
15.89
9.083
2.496
-3.851
-9.939
-15.751
-21.275
-26.497
-31.409
-36.002
-40.271
-44.214
-47.828
-51.116
-54.079
-56.722
-59.054
-61.08
-62.813
-64.263
-65.443
-66.367
-67.051
-67.509
-67.758
-67.815
-67.696
-67.419
-67.001
-66.46
-65.811
-65.072
-64.259
-63.387
-62.472
-61.526
-60.562
-59.594
-58.632
-57.685
-56.762
-55.871
-55.018
-54.208
-53.447
-52.736
-52.079
-51.475
-50.926
-50.431
-49.986
-49.591
-49.242
-48.934
-48.665
-48.429
-48.223
-48.039
-47.875
-47.725
-47.584
-47.448
-47.311
-47.17
-47.021
-46.861
-46.686
-46.494
-46.284
-46.054
-45.803
-45.532
-45.239
-44.927
-44.595
-44.246
-43.882
-43.505
-43.118
-42.725
-42.329
-41.933
-41.542
-41.16
-40.791
-40.438
-40.107
-39.799
-39.518
-39.268
-39.052
-38.871
-38.727
-38.621
-38.553
-38.525
-38.534
-38.579
-38.657
-38.764
-38.897
-39.052
-39.223
-39.405
-39.592
-39.778
-39.956
-40.121
-40.264
-40.379
-40.457
-40.492
-40.475
-40.398
-40.255
-40.038
-39.74
-39.356
-38.88
-38.307
-37.634
-36.857
-35.972
-34.978
-33.873
-32.659
-31.334
-29.903
-28.369
-26.739
-25.021
-23.225
-21.362
-19.44
-17.473
-15.471
-13.448
-11.413
-9.377
-7.351
-5.346
-3.376
-1.458
0.397
2.174
3.859
5.439
6.9
8.23
9.421
10.469
11.364
12.097
12.656
13.025
13.192
13.156
12.912
12.464
11.816
10.98
9.979
8.845
7.602
6.278
4.897
3.477
2.053
0.653
-0.701
-1.98
-3.161
-4.238
-5.202
-6.055
-6.824
-7.526
-8.18
-8.838
-9.537
-10.327
-11.281
-12.46
-13.925
-15.741
-17.971
-20.621
-23.636
-26.883
-30.142
-33.182
-35.806
-37.771
-38.803
-38.847
-38.053
-36.723
-35.367
-34.381
-33.919
-34.309
-35.942
-38.614
-41.735
-44.373
-45.023
-42.426
-35.759
-23.785
-5.803
17.438
45.083
76.393
111.806
153.313
201.146
251.293
295.246
324.124
333.172
324.076
304.801
282.231
259.078
235.622
208.782
178.099
146.727
115.313
84.12
51.398
13.576
-28.539
-70.746
-106.528
-129.777
-137.25
-129.308
-111.48
-88.383
-63.854
-42.544
-24.167
-9.571
-1.258
2.612
2.408
-0.695
-2.983
-4.53
-5.79
-6.617
-7.842
-8.374
-7.1
-4.191
-0.092
4.126
7.699
10.571
12.751
14.197
14.867
14.746
14.055
13.246
12.624
12.31
12.342
12.681
13.335
14.359
15.748
17.443
19.385
21.53
23.86
26.395
29.131
32.043
35.099
38.252
41.476
44.765
48.119
51.54
55.031
58.591
62.227
65.951
69.776
73.712
77.762
81.924
86.198
90.592
95.111
99.762
104.547
109.46
114.495
119.644
124.898
130.244
135.663
141.138
146.649
152.18
157.714
163.229
168.702
174.116
179.453
184.694
189.82
194.801
199.599
204.198
208.581
212.703
216.522
220.003
223.103
225.817
228.16
230.095
231.572
232.664
233.461
233.89
233.948
233.649
232.764
231.897
231.635
231.14
230.16
227.155
220.283
211.605
202.497
195.018
191.986
190.951
189.846
187.251
180.807
172.245
163.323
154.43
146.628
139.325
131.748
124.093
116.322
108.498
100.777
93.169
85.721
78.425
71.318
64.433
57.574
51.362
46.399
41.889
37.615
32.064
23.419
13.708
4.278
-2.867
-4.977
-4.479
-3.436
-3.259
-6.28
-10.841
-15.259
-19.17
-21.553
-23.02
-24.352
-25.416
-26.326
-27.046
-27.437
-27.617
-27.686
-27.633
-27.469
-27.222
-26.905
-26.529
-26.107
-25.638
-25.12
-24.571
-24.012
-23.452
-22.9
-22.367
-21.859
-21.385
-20.954
-20.57
-20.237
-19.957
-19.733
-19.566
-19.456
-19.403
-19.406
-19.462
-19.57
-19.725
-19.925
-20.165
-20.442
-20.751
-21.087
-21.446
-21.822
-22.212
-22.611
-23.014
-23.417
-23.817
-24.211
-24.596
-24.969
-25.33
-25.676
-26.007
-26.323
-26.624
-26.91
-27.183
-27.444
-27.694
-27.937
-28.175
-28.412
-28.649
-28.89
-29.14
-29.4
-29.674
-29.966
-30.277
-30.611
-30.969
-31.354
-31.769
-32.213
-32.69
-33.199
-33.741
-34.317
-34.924
-35.561
-36.227
-36.917
-37.629
-38.359
-39.102
-39.853
-40.606
-41.357
-42.099
-42.827
-43.532
-44.21
-44.851
-45.451
-46
-46.494
-46.925
-47.287
-47.575
-47.785
-47.913
-47.957
-47.913
-47.78
-47.556
-47.241
-46.834
-46.337
-45.752
-45.081
-44.328
-43.499
-42.602
-41.647
-40.643
-39.6
-38.529
-37.443
-36.352
-35.269
-34.205
-33.168
-32.169
-31.222
-30.339
-29.533
-28.818
-28.205
-27.708
-27.337
-27.105
-27.018
-27.083
-27.305
-27.687
-28.236
-28.96
-29.87
-30.975
-32.275
-33.77
-35.452
-37.312
-39.334
-41.495
-43.762
-46.1
-48.476
-50.857
-53.213
-55.516
-57.747
-59.88
-61.884
-63.735
-65.418
-66.94
-68.317
-69.562
-70.69
-71.716
-72.693
-73.699
-74.819
-76.145
-77.746
-79.659
-81.929
-84.622
-87.736
-91.194
-94.849
-98.45
-101.794
-104.764
-107.182
-108.862
-109.76
-109.966
-109.739
-109.441
-109.233
-109.164
-109.427
-110.164
-111.206
-111.986
-111.488
-108.815
-103.471
-94.834
-82.101
-64.48
-41.413
-14.008
15.8
47.433
79.983
113.542
147.939
178.588
201.804
214.238
212.688
199.356
176.028
144.361
107.908
67.366
23.815
-20.834
-65.74
-108.488
-146.228
-177.238
-200.41
-215.841
-224.483
-227.074
-224.317
-217.122
-206.853
-195.196
-183.582
-173.009
-163.851
-156.242
-150.389
-146.524
-144.606
-144.096
-144.266
-144.34
-143.945
-143.079
-141.649
-139.352
-135.947
-131.631
-126.736
-121.669
-116.738
-111.687
-106.877
-103.731
-102.109
-100.723
-97.292
-87.434
-71.009
-52.121
